t_ms,ecg_mV
0.000,-0.013751
0.050,-0.013663
0.100,-0.013577
0.150,-0.013491
0.200,-0.013405
0.250,-0.013320
0.300,-0.013234
0.350,-0.013149
0.400,-0.013063
0.450,-0.012977
0.500,-0.012888
0.550,-0.012789
0.600,-0.012649
0.650,-0.012339
0.700,-0.011401
0.750,-0.010594
0.800,-0.010302
0.850,-0.010153
0.900,-0.010048
0.950,-0.009959
1.000,-0.009971
1.050,-0.009981
1.100,-0.009991
1.150,-0.010001
1.200,-0.010011
1.250,-0.010021
1.300,-0.010032
1.350,-0.010043
1.400,-0.010054
1.450,-0.010066
1.500,-0.010078
1.550,-0.010090
1.600,-0.010102
1.650,-0.010115
1.700,-0.010128
1.750,-0.010141
1.800,-0.010154
1.850,-0.010167
1.900,-0.010180
1.950,-0.010193
2.000,-0.010206
2.050,-0.010215
2.100,-0.010216
2.150,-0.010217
2.200,-0.010226
2.250,-0.010239
2.300,-0.010252
2.350,-0.010266
2.400,-0.010280
2.450,-0.010295
2.500,-0.010309
2.550,-0.010324
2.600,-0.010339
2.650,-0.010354
2.700,-0.010369
2.750,-0.010384
2.800,-0.010399
2.850,-0.010414
2.900,-0.010429
2.950,-0.010444
3.000,-0.010459
3.050,-0.010474
3.100,-0.010489
3.150,-0.010504
3.200,-0.010518
3.250,-0.010533
3.300,-0.010548
3.350,-0.010562
3.400,-0.010576
3.450,-0.010589
3.500,-0.010600
3.550,-0.010602
3.600,-0.010602
3.650,-0.010612
3.700,-0.010624
3.750,-0.010637
3.800,-0.010651
3.850,-0.010665
3.900,-0.010679
3.950,-0.010694
4.000,-0.010708
4.050,-0.010722
4.100,-0.010737
4.150,-0.010751
4.200,-0.010765
4.250,-0.010779
4.300,-0.010793
4.350,-0.010807
4.400,-0.010821
4.450,-0.010835
4.500,-0.010849
4.550,-0.010863
4.600,-0.010876
4.650,-0.010890
4.700,-0.010903
4.750,-0.010916
4.800,-0.010929
4.850,-0.010942
4.900,-0.010953
4.950,-0.010963
5.000,-0.010964
5.050,-0.010961
5.100,-0.010967
5.150,-0.010977
5.200,-0.010989
5.250,-0.011000
5.300,-0.011012
5.350,-0.011024
5.400,-0.011037
5.450,-0.011049
5.500,-0.011061
5.550,-0.011073
5.600,-0.011085
5.650,-0.011097
5.700,-0.011109
5.750,-0.011121
5.800,-0.011132
5.850,-0.011144
5.900,-0.011156
5.950,-0.011167
6.000,-0.011178
6.050,-0.011189
6.100,-0.011201
6.150,-0.011211
6.200,-0.011222
6.250,-0.011232
6.300,-0.011242
6.350,-0.011252
6.400,-0.011259
6.450,-0.011260
6.500,-0.011253
6.550,-0.011255
6.600,-0.011262
6.650,-0.011270
6.700,-0.011279
6.750,-0.011288
6.800,-0.011298
6.850,-0.011307
6.900,-0.011317
6.950,-0.011326
7.000,-0.011335
7.050,-0.011345
7.100,-0.011354
7.150,-0.011363
7.200,-0.011372
7.250,-0.011381
7.300,-0.011390
7.350,-0.011399
7.400,-0.011407
7.450,-0.011416
7.500,-0.011424
7.550,-0.011432
7.600,-0.011440
7.650,-0.011448
7.700,-0.011456
7.750,-0.011463
7.800,-0.011469
7.850,-0.011474
7.900,-0.011473
7.950,-0.011462
8.000,-0.011460
8.050,-0.011464
8.100,-0.011469
8.150,-0.011475
8.200,-0.011482
8.250,-0.011488
8.300,-0.011495
8.350,-0.011502
8.400,-0.011508
8.450,-0.011515
8.500,-0.011521
8.550,-0.011527
8.600,-0.011534
8.650,-0.011540
8.700,-0.011546
8.750,-0.011552
8.800,-0.011558
8.850,-0.011563
8.900,-0.011569
8.950,-0.011574
9.000,-0.011580
9.050,-0.011585
9.100,-0.011590
9.150,-0.011595
9.200,-0.011599
9.250,-0.011602
9.300,-0.011604
9.350,-0.011601
9.400,-0.011587
9.450,-0.011581
9.500,-0.011581
9.550,-0.011584
9.600,-0.011587
9.650,-0.011590
9.700,-0.011594
9.750,-0.011598
9.800,-0.011601
9.850,-0.011605
9.900,-0.011608
9.950,-0.011612
10.000,-0.011615
10.050,-0.011619
10.100,-0.011622
10.150,-0.011625
10.200,-0.011628
10.250,-0.011631
10.300,-0.011634
10.350,-0.011637
10.400,-0.011639
10.450,-0.011642
10.500,-0.011644
10.550,-0.011646
10.600,-0.011648
10.650,-0.011649
10.700,-0.011650
10.750,-0.011649
10.800,-0.011643
10.850,-0.011627
10.900,-0.011617
10.950,-0.011614
11.000,-0.011613
11.050,-0.011613
11.100,-0.011614
11.150,-0.011614
11.200,-0.011615
11.250,-0.011616
11.300,-0.011617
11.350,-0.011618
11.400,-0.011618
11.450,-0.011619
11.500,-0.011620
11.550,-0.011620
11.600,-0.011620
11.650,-0.011621
11.700,-0.011621
11.750,-0.011621
11.800,-0.011621
11.850,-0.011620
11.900,-0.011620
11.950,-0.011619
12.000,-0.011619
12.050,-0.011618
12.100,-0.011616
12.150,-0.011614
12.200,-0.011611
12.250,-0.011603
12.300,-0.011585
12.350,-0.011570
12.400,-0.011563
12.450,-0.011559
12.500,-0.011556
12.550,-0.011554
12.600,-0.011552
12.650,-0.011550
12.700,-0.011548
12.750,-0.011546
12.800,-0.011544
12.850,-0.011542
12.900,-0.011539
12.950,-0.011537
13.000,-0.011535
13.050,-0.011532
13.100,-0.011530
13.150,-0.011527
13.200,-0.011524
13.250,-0.011521
13.300,-0.011518
13.350,-0.011515
13.400,-0.011511
13.450,-0.011508
13.500,-0.011504
13.550,-0.011500
13.600,-0.011495
13.650,-0.011489
13.700,-0.011480
13.750,-0.011462
13.800,-0.011440
13.850,-0.011429
13.900,-0.011422
13.950,-0.011416
14.000,-0.011410
14.050,-0.011405
14.100,-0.011400
14.150,-0.011395
14.200,-0.011390
14.250,-0.011385
14.300,-0.011380
14.350,-0.011375
14.400,-0.011369
14.450,-0.011364
14.500,-0.011358
14.550,-0.011353
14.600,-0.011347
14.650,-0.011341
14.700,-0.011335
14.750,-0.011329
14.800,-0.011323
14.850,-0.011317
14.900,-0.011310
14.950,-0.011303
15.000,-0.011296
15.050,-0.011289
15.100,-0.011280
15.150,-0.011270
15.200,-0.011252
15.250,-0.011224
15.300,-0.011207
15.350,-0.011195
15.400,-0.011186
15.450,-0.011177
15.500,-0.011168
15.550,-0.011160
15.600,-0.011152
15.650,-0.011144
15.700,-0.011136
15.750,-0.011127
15.800,-0.011119
15.850,-0.011110
15.900,-0.011102
15.950,-0.011093
16.000,-0.011084
16.050,-0.011076
16.100,-0.011066
16.150,-0.011057
16.200,-0.011048
16.250,-0.011038
16.300,-0.011029
16.350,-0.011019
16.400,-0.011009
16.450,-0.010998
16.500,-0.010987
16.550,-0.010976
16.600,-0.010962
16.650,-0.010942
16.700,-0.010910
16.750,-0.010888
16.800,-0.010873
16.850,-0.010860
16.900,-0.010847
16.950,-0.010835
17.000,-0.010824
17.050,-0.010812
17.100,-0.010800
17.150,-0.010788
17.200,-0.010777
17.250,-0.010765
17.300,-0.010753
17.350,-0.010741
17.400,-0.010728
17.450,-0.010716
17.500,-0.010704
17.550,-0.010691
17.600,-0.010678
17.650,-0.010665
17.700,-0.010652
17.750,-0.010639
17.800,-0.010625
17.850,-0.010612
17.900,-0.010597
17.950,-0.010583
18.000,-0.010568
18.050,-0.010550
18.100,-0.010527
18.150,-0.010492
18.200,-0.010464
18.250,-0.010444
18.300,-0.010427
18.350,-0.010411
18.400,-0.010395
18.450,-0.010380
18.500,-0.010364
18.550,-0.010349
18.600,-0.010333
18.650,-0.010317
18.700,-0.010302
18.750,-0.010286
18.800,-0.010270
18.850,-0.010254
18.900,-0.010237
18.950,-0.010221
19.000,-0.010204
19.050,-0.010188
19.100,-0.010171
19.150,-0.010154
19.200,-0.010136
19.250,-0.010119
19.300,-0.010101
19.350,-0.010083
19.400,-0.010064
19.450,-0.010045
19.500,-0.010024
19.550,-0.009998
19.600,-0.009959
19.650,-0.009924
19.700,-0.009900
19.750,-0.009878
19.800,-0.009858
19.850,-0.009837
19.900,-0.009817
19.950,-0.009798
20.000,-0.009778
20.050,-0.009758
20.100,-0.009738
20.150,-0.009718
20.200,-0.009698
20.250,-0.009677
20.300,-0.009657
20.350,-0.009636
20.400,-0.009615
20.450,-0.009594
20.500,-0.009573
20.550,-0.009551
20.600,-0.009530
20.650,-0.009508
20.700,-0.009486
20.750,-0.009464
20.800,-0.009441
20.850,-0.009418
20.900,-0.009394
20.950,-0.009369
21.000,-0.009340
21.050,-0.009300
21.100,-0.009257
21.150,-0.009226
21.200,-0.009198
21.250,-0.009173
21.300,-0.009148
21.350,-0.009123
21.400,-0.009099
21.450,-0.009074
21.500,-0.009049
21.550,-0.009025
21.600,-0.009000
21.650,-0.008975
21.700,-0.008949
21.750,-0.008924
21.800,-0.008899
21.850,-0.008873
21.900,-0.008847
21.950,-0.008821
22.000,-0.008795
22.050,-0.008768
22.100,-0.008742
22.150,-0.008715
22.200,-0.008687
22.250,-0.008660
22.300,-0.008632
22.350,-0.008603
22.400,-0.008574
22.450,-0.008542
22.500,-0.008501
22.550,-0.008450
22.600,-0.008409
22.650,-0.008376
22.700,-0.008345
22.750,-0.008315
22.800,-0.008285
22.850,-0.008255
22.900,-0.008225
22.950,-0.008196
23.000,-0.008166
23.050,-0.008136
23.100,-0.008106
23.150,-0.008076
23.200,-0.008045
23.250,-0.008014
23.300,-0.007984
23.350,-0.007953
23.400,-0.007922
23.450,-0.007890
23.500,-0.007859
23.550,-0.007827
23.600,-0.007795
23.650,-0.007762
23.700,-0.007730
23.750,-0.007697
23.800,-0.007663
23.850,-0.007629
23.900,-0.007592
23.950,-0.007547
24.000,-0.007489
24.050,-0.007442
24.100,-0.007404
24.150,-0.007367
24.200,-0.007332
24.250,-0.007296
24.300,-0.007262
24.350,-0.007227
24.400,-0.007192
24.450,-0.007157
24.500,-0.007122
24.550,-0.007087
24.600,-0.007051
24.650,-0.007016
24.700,-0.006980
24.750,-0.006944
24.800,-0.006908
24.850,-0.006872
24.900,-0.006836
24.950,-0.006799
25.000,-0.006762
25.050,-0.006725
25.100,-0.006688
25.150,-0.006650
25.200,-0.006612
25.250,-0.006574
25.300,-0.006535
25.350,-0.006493
25.400,-0.006444
25.450,-0.006382
25.500,-0.006328
25.550,-0.006284
25.600,-0.006243
25.650,-0.006202
25.700,-0.006162
25.750,-0.006123
25.800,-0.006083
25.850,-0.006044
25.900,-0.006004
25.950,-0.005965
26.000,-0.005925
26.050,-0.005885
26.100,-0.005845
26.150,-0.005805
26.200,-0.005765
26.250,-0.005725
26.300,-0.005684
26.350,-0.005644
26.400,-0.005603
26.450,-0.005562
26.500,-0.005521
26.550,-0.005479
26.600,-0.005438
26.650,-0.005396
26.700,-0.005354
26.750,-0.005310
26.800,-0.005265
26.850,-0.005214
26.900,-0.005148
26.950,-0.005088
27.000,-0.005040
27.050,-0.004994
27.100,-0.004950
27.150,-0.004907
27.200,-0.004864
27.250,-0.004821
27.300,-0.004778
27.350,-0.004735
27.400,-0.004692
27.450,-0.004650
27.500,-0.004607
27.550,-0.004564
27.600,-0.004521
27.650,-0.004478
27.700,-0.004435
27.750,-0.004391
27.800,-0.004348
27.850,-0.004305
27.900,-0.004261
27.950,-0.004218
28.000,-0.004174
28.050,-0.004130
28.100,-0.004086
28.150,-0.004042
28.200,-0.003997
28.250,-0.003950
28.300,-0.003899
28.350,-0.003835
28.400,-0.003768
28.450,-0.003716
28.500,-0.003668
28.550,-0.003623
28.600,-0.003578
28.650,-0.003533
28.700,-0.003489
28.750,-0.003445
28.800,-0.003401
28.850,-0.003357
28.900,-0.003313
28.950,-0.003270
29.000,-0.003226
29.050,-0.003182
29.100,-0.003139
29.150,-0.003095
29.200,-0.003052
29.250,-0.003008
29.300,-0.002965
29.350,-0.002921
29.400,-0.002878
29.450,-0.002834
29.500,-0.002791
29.550,-0.002747
29.600,-0.002703
29.650,-0.002659
29.700,-0.002613
29.750,-0.002565
29.800,-0.002507
29.850,-0.002437
29.900,-0.002381
29.950,-0.002333
30.000,-0.002288
30.050,-0.002244
30.100,-0.002200
30.150,-0.002157
30.200,-0.002115
30.250,-0.002072
30.300,-0.002030
30.350,-0.001988
30.400,-0.001947
30.450,-0.001905
30.500,-0.001863
30.550,-0.001822
30.600,-0.001781
30.650,-0.001739
30.700,-0.001698
30.750,-0.001657
30.800,-0.001617
30.850,-0.001576
30.900,-0.001535
30.950,-0.001494
31.000,-0.001454
31.050,-0.001413
31.100,-0.001372
31.150,-0.001330
31.200,-0.001285
31.250,-0.001232
31.300,-0.001164
31.350,-0.001110
31.400,-0.001065
31.450,-0.001023
31.500,-0.000983
31.550,-0.000943
31.600,-0.000904
31.650,-0.000865
31.700,-0.000827
31.750,-0.000789
31.800,-0.000751
31.850,-0.000714
31.900,-0.000677
31.950,-0.000640
32.000,-0.000603
32.050,-0.000566
32.100,-0.000530
32.150,-0.000493
32.200,-0.000457
32.250,-0.000421
32.300,-0.000385
32.350,-0.000349
32.400,-0.000314
32.450,-0.000278
32.500,-0.000242
32.550,-0.000206
32.600,-0.000170
32.650,-0.000131
32.700,-0.000084
32.750,-0.000021
32.800,0.000030
32.850,0.000070
32.900,0.000107
32.950,0.000142
33.000,0.000176
33.050,0.000209
33.100,0.000242
33.150,0.000275
33.200,0.000307
33.250,0.000339
33.300,0.000371
33.350,0.000402
33.400,0.000434
33.450,0.000465
33.500,0.000495
33.550,0.000526
33.600,0.000556
33.650,0.000586
33.700,0.000616
33.750,0.000646
33.800,0.000676
33.850,0.000705
33.900,0.000735
33.950,0.000765
34.000,0.000794
34.050,0.000825
34.100,0.000857
34.150,0.000896
34.200,0.000953
34.250,0.001001
34.300,0.001035
34.350,0.001066
34.400,0.001095
34.450,0.001123
34.500,0.001151
34.550,0.001177
34.600,0.001204
34.650,0.001230
34.700,0.001256
34.750,0.001281
34.800,0.001306
34.850,0.001331
34.900,0.001356
34.950,0.001381
35.000,0.001405
35.050,0.001429
35.100,0.001453
35.150,0.001477
35.200,0.001501
35.250,0.001524
35.300,0.001548
35.350,0.001571
35.400,0.001594
35.450,0.001618
35.500,0.001642
35.550,0.001668
35.600,0.001699
35.650,0.001747
35.700,0.001793
35.750,0.001824
35.800,0.001850
35.850,0.001873
35.900,0.001895
35.950,0.001917
36.000,0.001938
36.050,0.001959
36.100,0.001979
36.150,0.001999
36.200,0.002018
36.250,0.002038
36.300,0.002057
36.350,0.002076
36.400,0.002095
36.450,0.002114
36.500,0.002132
36.550,0.002151
36.600,0.002169
36.650,0.002187
36.700,0.002205
36.750,0.002223
36.800,0.002241
36.850,0.002259
36.900,0.002277
36.950,0.002295
37.000,0.002315
37.050,0.002338
37.100,0.002373
37.150,0.002421
37.200,0.002452
37.250,0.002474
37.300,0.002493
37.350,0.002510
37.400,0.002527
37.450,0.002543
37.500,0.002559
37.550,0.002574
37.600,0.002589
37.650,0.002604
37.700,0.002618
37.750,0.002633
37.800,0.002647
37.850,0.002661
37.900,0.002675
37.950,0.002689
38.000,0.002702
38.050,0.002716
38.100,0.002729
38.150,0.002743
38.200,0.002756
38.250,0.002770
38.300,0.002783
38.350,0.002797
38.400,0.002811
38.450,0.002826
38.500,0.002844
38.550,0.002872
38.600,0.002918
38.650,0.002947
38.700,0.002966
38.750,0.002981
38.800,0.002994
38.850,0.003007
38.900,0.003019
38.950,0.003031
39.000,0.003042
39.050,0.003053
39.100,0.003064
39.150,0.003075
39.200,0.003085
39.250,0.003096
39.300,0.003106
39.350,0.003116
39.400,0.003126
39.450,0.003136
39.500,0.003146
39.550,0.003156
39.600,0.003166
39.650,0.003175
39.700,0.003185
39.750,0.003195
39.800,0.003205
39.850,0.003216
39.900,0.003227
39.950,0.003242
40.000,0.003266
40.050,0.003308
40.100,0.003337
40.150,0.003353
40.200,0.003365
40.250,0.003376
40.300,0.003385
40.350,0.003394
40.400,0.003403
40.450,0.003411
40.500,0.003419
40.550,0.003427
40.600,0.003435
40.650,0.003442
40.700,0.003450
40.750,0.003457
40.800,0.003464
40.850,0.003472
40.900,0.003479
40.950,0.003486
41.000,0.003493
41.050,0.003500
41.100,0.003507
41.150,0.003514
41.200,0.003521
41.250,0.003529
41.300,0.003537
41.350,0.003545
41.400,0.003557
41.450,0.003577
41.500,0.003617
41.550,0.003647
41.600,0.003661
41.650,0.003671
41.700,0.003680
41.750,0.003687
41.800,0.003694
41.850,0.003700
41.900,0.003706
41.950,0.003712
42.000,0.003717
42.050,0.003723
42.100,0.003728
42.150,0.003733
42.200,0.003739
42.250,0.003744
42.300,0.003749
42.350,0.003754
42.400,0.003759
42.450,0.003764
42.500,0.003769
42.550,0.003774
42.600,0.003779
42.650,0.003784
42.700,0.003789
42.750,0.003795
42.800,0.003802
42.850,0.003811
42.900,0.003827
42.950,0.003863
43.000,0.003896
43.050,0.003910
43.100,0.003919
43.150,0.003926
43.200,0.003932
43.250,0.003937
43.300,0.003942
43.350,0.003946
43.400,0.003950
43.450,0.003954
43.500,0.003958
43.550,0.003962
43.600,0.003965
43.650,0.003969
43.700,0.003973
43.750,0.003976
43.800,0.003980
43.850,0.003983
43.900,0.003987
43.950,0.003990
44.000,0.003994
44.050,0.003997
44.100,0.004001
44.150,0.004005
44.200,0.004009
44.250,0.004014
44.300,0.004021
44.350,0.004032
44.400,0.004060
44.450,0.004099
44.500,0.004117
44.550,0.004126
44.600,0.004133
44.650,0.004138
44.700,0.004142
44.750,0.004145
44.800,0.004148
44.850,0.004151
44.900,0.004154
44.950,0.004157
45.000,0.004159
45.050,0.004162
45.100,0.004164
45.150,0.004167
45.200,0.004169
45.250,0.004172
45.300,0.004174
45.350,0.004176
45.400,0.004179
45.450,0.004181
45.500,0.004184
45.550,0.004186
45.600,0.004189
45.650,0.004192
45.700,0.004196
45.750,0.004201
45.800,0.004210
45.850,0.004232
45.900,0.004273
45.950,0.004296
46.000,0.004306
46.050,0.004312
46.100,0.004316
46.150,0.004319
46.200,0.004322
46.250,0.004325
46.300,0.004327
46.350,0.004329
46.400,0.004330
46.450,0.004332
46.500,0.004334
46.550,0.004336
46.600,0.004337
46.650,0.004339
46.700,0.004340
46.750,0.004342
46.800,0.004343
46.850,0.004345
46.900,0.004347
46.950,0.004348
47.000,0.004350
47.050,0.004352
47.100,0.004355
47.150,0.004358
47.200,0.004362
47.250,0.004370
47.300,0.004390
47.350,0.004432
47.400,0.004456
47.450,0.004466
47.500,0.004472
47.550,0.004476
47.600,0.004479
47.650,0.004481
47.700,0.004483
47.750,0.004484
47.800,0.004486
47.850,0.004487
47.900,0.004488
47.950,0.004489
48.000,0.004490
48.050,0.004491
48.100,0.004492
48.150,0.004493
48.200,0.004494
48.250,0.004495
48.300,0.004496
48.350,0.004497
48.400,0.004499
48.450,0.004500
48.500,0.004502
48.550,0.004503
48.600,0.004506
48.650,0.004510
48.700,0.004517
48.750,0.004535
48.800,0.004576
48.850,0.004604
48.900,0.004614
48.950,0.004620
49.000,0.004624
49.050,0.004626
49.100,0.004628
49.150,0.004629
49.200,0.004630
49.250,0.004631
49.300,0.004632
49.350,0.004633
49.400,0.004634
49.450,0.004634
49.500,0.004635
49.550,0.004635
49.600,0.004636
49.650,0.004636
49.700,0.004637
49.750,0.004638
49.800,0.004638
49.850,0.004639
49.900,0.004640
49.950,0.004641
50.000,0.004643
50.050,0.004645
50.100,0.004648
50.150,0.004654
50.200,0.004669
50.250,0.004709
50.300,0.004741
50.350,0.004754
50.400,0.004760
50.450,0.004763
50.500,0.004766
50.550,0.004767
50.600,0.004768
50.650,0.004769
50.700,0.004770
50.750,0.004770
50.800,0.004771
50.850,0.004771
50.900,0.004771
50.950,0.004772
51.000,0.004772
51.050,0.004772
51.100,0.004772
51.150,0.004773
51.200,0.004773
51.250,0.004774
51.300,0.004774
51.350,0.004775
51.400,0.004775
51.450,0.004777
51.500,0.004778
51.550,0.004781
51.600,0.004786
51.650,0.004797
51.700,0.004829
51.750,0.004870
51.800,0.004887
51.850,0.004894
51.900,0.004898
51.950,0.004901
52.000,0.004903
52.050,0.004904
52.100,0.004904
52.150,0.004905
52.200,0.004905
52.250,0.004905
52.300,0.004905
52.350,0.004906
52.400,0.004906
52.450,0.004906
52.500,0.004906
52.550,0.004906
52.600,0.004906
52.650,0.004906
52.700,0.004906
52.750,0.004906
52.800,0.004907
52.850,0.004907
52.900,0.004908
52.950,0.004910
53.000,0.004912
53.050,0.004915
53.100,0.004924
53.150,0.004948
53.200,0.004994
53.250,0.005018
53.300,0.005028
53.350,0.005033
53.400,0.005036
53.450,0.005037
53.500,0.005038
53.550,0.005039
53.600,0.005039
53.650,0.005040
53.700,0.005040
53.750,0.005040
53.800,0.005040
53.850,0.005039
53.900,0.005039
53.950,0.005039
54.000,0.005039
54.050,0.005039
54.100,0.005039
54.150,0.005039
54.200,0.005039
54.250,0.005039
54.300,0.005040
54.350,0.005040
54.400,0.005042
54.450,0.005043
54.500,0.005047
54.550,0.005055
54.600,0.005077
54.650,0.005125
54.700,0.005153
54.750,0.005163
54.800,0.005168
54.850,0.005171
54.900,0.005173
54.950,0.005174
55.000,0.005174
55.050,0.005175
55.100,0.005175
55.150,0.005175
55.200,0.005175
55.250,0.005174
55.300,0.005174
55.350,0.005174
55.400,0.005174
55.450,0.005173
55.500,0.005173
55.550,0.005173
55.600,0.005173
55.650,0.005173
55.700,0.005173
55.750,0.005173
55.800,0.005174
55.850,0.005175
55.900,0.005177
55.950,0.005180
56.000,0.005187
56.050,0.005207
56.100,0.005256
56.150,0.005288
56.200,0.005299
56.250,0.005305
56.300,0.005308
56.350,0.005310
56.400,0.005311
56.450,0.005311
56.500,0.005312
56.550,0.005312
56.600,0.005311
56.650,0.005311
56.700,0.005311
56.750,0.005311
56.800,0.005310
56.850,0.005310
56.900,0.005310
56.950,0.005309
57.000,0.005309
57.050,0.005309
57.100,0.005309
57.150,0.005309
57.200,0.005309
57.250,0.005309
57.300,0.005310
57.350,0.005312
57.400,0.005315
57.450,0.005321
57.500,0.005339
57.550,0.005386
57.600,0.005424
57.650,0.005437
57.700,0.005444
57.750,0.005447
57.800,0.005449
57.850,0.005450
57.900,0.005451
57.950,0.005451
58.000,0.005451
58.050,0.005451
58.100,0.005451
58.150,0.005450
58.200,0.005450
58.250,0.005449
58.300,0.005449
58.350,0.005449
58.400,0.005448
58.450,0.005448
58.500,0.005448
58.550,0.005447
58.600,0.005447
58.650,0.005447
58.700,0.005448
58.750,0.005448
58.800,0.005450
58.850,0.005452
58.900,0.005457
58.950,0.005471
59.000,0.005510
59.050,0.005558
59.100,0.005577
59.150,0.005585
59.200,0.005589
59.250,0.005592
59.300,0.005593
59.350,0.005594
59.400,0.005594
59.450,0.005594
59.500,0.005594
59.550,0.005594
59.600,0.005593
59.650,0.005593
59.700,0.005592
59.750,0.005592
59.800,0.005591
59.850,0.005591
59.900,0.005591
59.950,0.005590
60.000,0.005590
60.050,0.005590
60.100,0.005590
60.150,0.005590
60.200,0.005591
60.250,0.005592
60.300,0.005594
60.350,0.005598
60.400,0.005608
60.450,0.005636
60.500,0.005692
60.550,0.005721
60.600,0.005731
60.650,0.005737
60.700,0.005740
60.750,0.005741
60.800,0.005742
60.850,0.005743
60.900,0.005743
60.950,0.005743
61.000,0.005742
61.050,0.005742
61.100,0.005741
61.150,0.005741
61.200,0.005740
61.250,0.005740
61.300,0.005739
61.350,0.005739
61.400,0.005738
61.450,0.005738
61.500,0.005738
61.550,0.005738
61.600,0.005738
61.650,0.005738
61.700,0.005740
61.750,0.005741
61.800,0.005745
61.850,0.005755
61.900,0.005781
61.950,0.005839
62.000,0.005872
62.050,0.005884
62.100,0.005890
62.150,0.005893
62.200,0.005895
62.250,0.005896
62.300,0.005896
62.350,0.005896
62.400,0.005896
62.450,0.005896
62.500,0.005895
62.550,0.005895
62.600,0.005894
62.650,0.005894
62.700,0.005893
62.750,0.005893
62.800,0.005892
62.850,0.005892
62.900,0.005891
62.950,0.005891
63.000,0.005891
63.050,0.005891
63.100,0.005891
63.150,0.005892
63.200,0.005894
63.250,0.005898
63.300,0.005907
63.350,0.005931
63.400,0.005991
63.450,0.006028
63.500,0.006042
63.550,0.006048
63.600,0.006052
63.650,0.006054
63.700,0.006055
63.750,0.006055
63.800,0.006055
63.850,0.006055
63.900,0.006055
63.950,0.006054
64.000,0.006054
64.050,0.006053
64.100,0.006053
64.150,0.006052
64.200,0.006051
64.250,0.006051
64.300,0.006050
64.350,0.006050
64.400,0.006050
64.450,0.006049
64.500,0.006049
64.550,0.006050
64.600,0.006051
64.650,0.006053
64.700,0.006056
64.750,0.006064
64.800,0.006085
64.850,0.006143
64.900,0.006188
64.950,0.006204
65.000,0.006212
65.050,0.006216
65.100,0.006218
65.150,0.006219
65.200,0.006220
65.250,0.006220
65.300,0.006220
65.350,0.006219
65.400,0.006219
65.450,0.006218
65.500,0.006217
65.550,0.006217
65.600,0.006216
65.650,0.006216
65.700,0.006215
65.750,0.006214
65.800,0.006214
65.850,0.006214
65.900,0.006213
65.950,0.006213
66.000,0.006214
66.050,0.006214
66.100,0.006216
66.150,0.006219
66.200,0.006225
66.250,0.006241
66.300,0.006290
66.350,0.006348
66.400,0.006370
66.450,0.006380
66.500,0.006385
66.550,0.006388
66.600,0.006389
66.650,0.006390
66.700,0.006390
66.750,0.006390
66.800,0.006390
66.850,0.006389
66.900,0.006389
66.950,0.006388
67.000,0.006387
67.050,0.006387
67.100,0.006386
67.150,0.006385
67.200,0.006385
67.250,0.006384
67.300,0.006384
67.350,0.006383
67.400,0.006383
67.450,0.006384
67.500,0.006384
67.550,0.006385
67.600,0.006388
67.650,0.006393
67.700,0.006405
67.750,0.006440
67.800,0.006508
67.850,0.006542
67.900,0.006555
67.950,0.006562
68.000,0.006565
68.050,0.006567
68.100,0.006568
68.150,0.006569
68.200,0.006569
68.250,0.006568
68.300,0.006568
68.350,0.006567
68.400,0.006567
68.450,0.006566
68.500,0.006565
68.550,0.006565
68.600,0.006564
68.650,0.006563
68.700,0.006563
68.750,0.006562
68.800,0.006562
68.850,0.006562
68.900,0.006562
68.950,0.006562
69.000,0.006564
69.050,0.006566
69.100,0.006571
69.150,0.006582
69.200,0.006615
69.250,0.006686
69.300,0.006725
69.350,0.006740
69.400,0.006747
69.450,0.006751
69.500,0.006753
69.550,0.006754
69.600,0.006755
69.650,0.006755
69.700,0.006754
69.750,0.006754
69.800,0.006753
69.850,0.006753
69.900,0.006752
69.950,0.006751
70.000,0.006750
70.050,0.006750
70.100,0.006749
70.150,0.006748
70.200,0.006748
70.250,0.006748
70.300,0.006747
70.350,0.006748
70.400,0.006748
70.450,0.006749
70.500,0.006752
70.550,0.006756
70.600,0.006767
70.650,0.006798
70.700,0.006871
70.750,0.006916
70.800,0.006932
70.850,0.006940
70.900,0.006944
70.950,0.006947
71.000,0.006948
71.050,0.006948
71.100,0.006948
71.150,0.006948
71.200,0.006948
71.250,0.006947
71.300,0.006946
71.350,0.006946
71.400,0.006945
71.450,0.006944
71.500,0.006943
71.550,0.006942
71.600,0.006942
71.650,0.006941
71.700,0.006941
71.750,0.006941
71.800,0.006941
71.850,0.006941
71.900,0.006942
71.950,0.006944
72.000,0.006949
72.050,0.006959
72.100,0.006986
72.150,0.007058
72.200,0.007112
72.250,0.007131
72.300,0.007140
72.350,0.007145
72.400,0.007148
72.450,0.007149
72.500,0.007150
72.550,0.007150
72.600,0.007149
72.650,0.007149
72.700,0.007148
72.750,0.007148
72.800,0.007147
72.850,0.007146
72.900,0.007145
72.950,0.007144
73.000,0.007144
73.050,0.007143
73.100,0.007142
73.150,0.007142
73.200,0.007142
73.250,0.007142
73.300,0.007142
73.350,0.007143
73.400,0.007145
73.450,0.007149
73.500,0.007157
73.550,0.007178
73.600,0.007241
73.650,0.007310
73.700,0.007336
73.750,0.007347
73.800,0.007353
73.850,0.007356
73.900,0.007358
73.950,0.007359
74.000,0.007359
74.050,0.007359
74.100,0.007359
74.150,0.007358
74.200,0.007357
74.250,0.007357
74.300,0.007356
74.350,0.007355
74.400,0.007354
74.450,0.007353
74.500,0.007352
74.550,0.007352
74.600,0.007351
74.650,0.007351
74.700,0.007351
74.750,0.007351
74.800,0.007352
74.850,0.007353
74.900,0.007357
74.950,0.007363
75.000,0.007378
75.050,0.007424
75.100,0.007507
75.150,0.007548
75.200,0.007564
75.250,0.007572
75.300,0.007576
75.350,0.007578
75.400,0.007580
75.450,0.007580
75.500,0.007580
75.550,0.007580
75.600,0.007579
75.650,0.007578
75.700,0.007578
75.750,0.007577
75.800,0.007576
75.850,0.007575
75.900,0.007574
75.950,0.007573
76.000,0.007573
76.050,0.007572
76.100,0.007572
76.150,0.007571
76.200,0.007572
76.250,0.007572
76.300,0.007574
76.350,0.007577
76.400,0.007583
76.450,0.007597
76.500,0.007639
76.550,0.007728
76.600,0.007775
76.650,0.007793
76.700,0.007802
76.750,0.007807
76.800,0.007809
76.850,0.007811
76.900,0.007811
76.950,0.007811
77.000,0.007811
77.050,0.007810
77.100,0.007809
77.150,0.007809
77.200,0.007808
77.250,0.007807
77.300,0.007806
77.350,0.007805
77.400,0.007804
77.450,0.007803
77.500,0.007803
77.550,0.007802
77.600,0.007802
77.650,0.007802
77.700,0.007803
77.750,0.007804
77.800,0.007807
77.850,0.007813
77.900,0.007827
77.950,0.007866
78.000,0.007958
78.050,0.008012
78.100,0.008033
78.150,0.008042
78.200,0.008047
78.250,0.008050
78.300,0.008052
78.350,0.008053
78.400,0.008053
78.450,0.008052
78.500,0.008052
78.550,0.008051
78.600,0.008050
78.650,0.008049
78.700,0.008048
78.750,0.008047
78.800,0.008046
78.850,0.008045
78.900,0.008044
78.950,0.008044
79.000,0.008043
79.050,0.008043
79.100,0.008043
79.150,0.008044
79.200,0.008045
79.250,0.008048
79.300,0.008054
79.350,0.008066
79.400,0.008102
79.450,0.008193
79.500,0.008258
79.550,0.008282
79.600,0.008293
79.650,0.008299
79.700,0.008302
79.750,0.008304
79.800,0.008304
79.850,0.008305
79.900,0.008304
79.950,0.008304
80.000,0.008303
80.050,0.008302
80.100,0.008301
80.150,0.008300
80.200,0.008299
80.250,0.008298
80.300,0.008297
80.350,0.008296
80.400,0.008296
80.450,0.008295
80.500,0.008295
80.550,0.008295
80.600,0.008295
80.650,0.008297
80.700,0.008299
80.750,0.008304
80.800,0.008315
80.850,0.008343
80.900,0.008427
80.950,0.008509
81.000,0.008539
81.050,0.008553
81.100,0.008560
81.150,0.008564
81.200,0.008566
81.250,0.008567
81.300,0.008568
81.350,0.008567
81.400,0.008567
81.450,0.008566
81.500,0.008565
81.550,0.008564
81.600,0.008563
81.650,0.008562
81.700,0.008561
81.750,0.008560
81.800,0.008559
81.850,0.008558
81.900,0.008558
81.950,0.008557
82.000,0.008557
82.050,0.008558
82.100,0.008559
82.150,0.008561
82.200,0.008565
82.250,0.008573
82.300,0.008593
82.350,0.008655
82.400,0.008759
82.450,0.008806
82.500,0.008825
82.550,0.008835
82.600,0.008840
82.650,0.008843
82.700,0.008844
82.750,0.008845
82.800,0.008845
82.850,0.008845
82.900,0.008844
82.950,0.008843
83.000,0.008842
83.050,0.008841
83.100,0.008840
83.150,0.008839
83.200,0.008838
83.250,0.008837
83.300,0.008836
83.350,0.008835
83.400,0.008835
83.450,0.008834
83.500,0.008835
83.550,0.008836
83.600,0.008838
83.650,0.008842
83.700,0.008849
83.750,0.008868
83.800,0.008922
83.850,0.009034
83.900,0.009092
83.950,0.009114
84.000,0.009125
84.050,0.009131
84.100,0.009134
84.150,0.009136
84.200,0.009137
84.250,0.009137
84.300,0.009136
84.350,0.009136
84.400,0.009135
84.450,0.009134
84.500,0.009133
84.550,0.009132
84.600,0.009130
84.650,0.009129
84.700,0.009128
84.750,0.009127
84.800,0.009127
84.850,0.009126
84.900,0.009126
84.950,0.009126
85.000,0.009127
85.050,0.009129
85.100,0.009133
85.150,0.009140
85.200,0.009158
85.250,0.009209
85.300,0.009326
85.350,0.009393
85.400,0.009418
85.450,0.009430
85.500,0.009437
85.550,0.009440
85.600,0.009442
85.650,0.009443
85.700,0.009443
85.750,0.009443
85.800,0.009442
85.850,0.009441
85.900,0.009440
85.950,0.009439
86.000,0.009438
86.050,0.009436
86.100,0.009435
86.150,0.009434
86.200,0.009433
86.250,0.009432
86.300,0.009432
86.350,0.009432
86.400,0.009432
86.450,0.009433
86.500,0.009435
86.550,0.009438
86.600,0.009446
86.650,0.009462
86.700,0.009509
86.750,0.009628
86.800,0.009707
86.850,0.009736
86.900,0.009749
86.950,0.009757
87.000,0.009761
87.050,0.009763
87.100,0.009764
87.150,0.009764
87.200,0.009764
87.250,0.009763
87.300,0.009762
87.350,0.009761
87.400,0.009760
87.450,0.009759
87.500,0.009757
87.550,0.009756
87.600,0.009755
87.650,0.009754
87.700,0.009753
87.750,0.009752
87.800,0.009752
87.850,0.009752
87.900,0.009753
87.950,0.009755
88.000,0.009758
88.050,0.009765
88.100,0.009780
88.150,0.009819
88.200,0.009932
88.250,0.010030
88.300,0.010066
88.350,0.010083
88.400,0.010092
88.450,0.010096
88.500,0.010099
88.550,0.010100
88.600,0.010101
88.650,0.010100
88.700,0.010100
88.750,0.010099
88.800,0.010098
88.850,0.010096
88.900,0.010095
88.950,0.010094
89.000,0.010092
89.050,0.010091
89.100,0.010090
89.150,0.010089
89.200,0.010088
89.250,0.010088
89.300,0.010088
89.350,0.010088
89.400,0.010090
89.450,0.010093
89.500,0.010099
89.550,0.010110
89.600,0.010139
89.650,0.010227
89.700,0.010355
89.750,0.010410
89.800,0.010432
89.850,0.010443
89.900,0.010450
89.950,0.010453
90.000,0.010455
90.050,0.010456
90.100,0.010456
90.150,0.010455
90.200,0.010454
90.250,0.010453
90.300,0.010452
90.350,0.010450
90.400,0.010449
90.450,0.010448
90.500,0.010446
90.550,0.010445
90.600,0.010444
90.650,0.010443
90.700,0.010443
90.750,0.010443
90.800,0.010443
90.850,0.010444
90.900,0.010447
90.950,0.010452
91.000,0.010462
91.050,0.010486
91.100,0.010558
91.150,0.010701
91.200,0.010774
91.250,0.010803
91.300,0.010816
91.350,0.010824
91.400,0.010828
91.450,0.010830
91.500,0.010831
91.550,0.010832
91.600,0.010831
91.650,0.010830
91.700,0.010829
91.750,0.010828
91.800,0.010826
91.850,0.010825
91.900,0.010823
91.950,0.010822
92.000,0.010821
92.050,0.010820
92.100,0.010819
92.150,0.010818
92.200,0.010818
92.250,0.010819
92.300,0.010820
92.350,0.010822
92.400,0.010827
92.450,0.010837
92.500,0.010860
92.550,0.010928
92.600,0.011078
92.650,0.011164
92.700,0.011196
92.750,0.011211
92.800,0.011219
92.850,0.011224
92.900,0.011227
92.950,0.011228
93.000,0.011228
93.050,0.011227
93.100,0.011227
93.150,0.011225
93.200,0.011224
93.250,0.011223
93.300,0.011221
93.350,0.011220
93.400,0.011218
93.450,0.011217
93.500,0.011216
93.550,0.011215
93.600,0.011214
93.650,0.011214
93.700,0.011214
93.750,0.011215
93.800,0.011218
93.850,0.011223
93.900,0.011233
93.950,0.011255
94.000,0.011317
94.050,0.011472
94.100,0.011572
94.150,0.011609
94.200,0.011626
94.250,0.011636
94.300,0.011641
94.350,0.011644
94.400,0.011645
94.450,0.011645
94.500,0.011645
94.550,0.011644
94.600,0.011643
94.650,0.011642
94.700,0.011640
94.750,0.011639
94.800,0.011637
94.850,0.011635
94.900,0.011634
94.950,0.011633
95.000,0.011632
95.050,0.011631
95.100,0.011631
95.150,0.011631
95.200,0.011632
95.250,0.011635
95.300,0.011639
95.350,0.011648
95.400,0.011668
95.450,0.011722
95.500,0.011872
95.550,0.011996
95.600,0.012041
95.650,0.012062
95.700,0.012073
95.750,0.012079
95.800,0.012083
95.850,0.012084
95.900,0.012085
95.950,0.012085
96.000,0.012084
96.050,0.012083
96.100,0.012081
96.150,0.012080
96.200,0.012078
96.250,0.012076
96.300,0.012075
96.350,0.012073
96.400,0.012072
96.450,0.012071
96.500,0.012070
96.550,0.012069
96.600,0.012070
96.650,0.012070
96.700,0.012072
96.750,0.012077
96.800,0.012084
96.850,0.012100
96.900,0.012141
96.950,0.012263
97.000,0.012425
97.050,0.012492
97.100,0.012520
97.150,0.012534
97.200,0.012542
97.250,0.012547
97.300,0.012549
97.350,0.012550
97.400,0.012550
97.450,0.012549
97.500,0.012548
97.550,0.012547
97.600,0.012545
97.650,0.012543
97.700,0.012542
97.750,0.012540
97.800,0.012538
97.850,0.012537
97.900,0.012536
97.950,0.012535
98.000,0.012534
98.050,0.012534
98.100,0.012535
98.150,0.012536
98.200,0.012540
98.250,0.012547
98.300,0.012560
98.350,0.012592
98.400,0.012687
98.450,0.012874
98.500,0.012970
98.550,0.013007
98.600,0.013025
98.650,0.013035
98.700,0.013040
98.750,0.013043
98.800,0.013045
98.850,0.013045
98.900,0.013044
98.950,0.013043
99.000,0.013042
99.050,0.013040
99.100,0.013039
99.150,0.013037
99.200,0.013035
99.250,0.013033
99.300,0.013032
99.350,0.013030
99.400,0.013029
99.450,0.013029
99.500,0.013029
99.550,0.013029
99.600,0.013031
99.650,0.013034
99.700,0.013041
99.750,0.013055
99.800,0.013085
99.850,0.013175
99.900,0.013373
99.950,0.013485
100.000,0.013526
100.050,0.013547
100.100,0.013558
100.150,0.013564
100.200,0.013568
100.250,0.013569
100.300,0.013569
100.350,0.013569
100.400,0.013568
100.450,0.013566
100.500,0.013565
100.550,0.013563
100.600,0.013561
100.650,0.013559
100.700,0.013557
100.750,0.013556
100.800,0.013554
100.850,0.013553
100.900,0.013552
100.950,0.013552
101.000,0.013553
101.050,0.013554
101.100,0.013558
101.150,0.013565
101.200,0.013578
101.250,0.013607
101.300,0.013691
101.350,0.013896
101.400,0.014028
101.450,0.014076
101.500,0.014099
101.550,0.014111
101.600,0.014118
101.650,0.014122
101.700,0.014124
101.750,0.014125
101.800,0.014124
101.850,0.014123
101.900,0.014122
101.950,0.014120
102.000,0.014118
102.050,0.014116
102.100,0.014114
102.150,0.014112
102.200,0.014111
102.250,0.014109
102.300,0.014108
102.350,0.014107
102.400,0.014107
102.450,0.014107
102.500,0.014109
102.550,0.014112
102.600,0.014118
102.650,0.014131
102.700,0.014157
102.750,0.014231
102.800,0.014432
102.850,0.014595
102.900,0.014654
102.950,0.014681
103.000,0.014696
103.050,0.014704
103.100,0.014709
103.150,0.014711
103.200,0.014712
103.250,0.014712
103.300,0.014711
103.350,0.014709
103.400,0.014707
103.450,0.014705
103.500,0.014703
103.550,0.014701
103.600,0.014699
103.650,0.014698
103.700,0.014696
103.750,0.014694
103.800,0.014693
103.850,0.014693
103.900,0.014693
103.950,0.014695
104.000,0.014698
104.050,0.014703
104.100,0.014714
104.150,0.014736
104.200,0.014792
104.250,0.014959
104.300,0.015173
104.350,0.015259
104.400,0.015296
104.450,0.015315
104.500,0.015326
104.550,0.015332
104.600,0.015335
104.650,0.015336
104.700,0.015336
104.750,0.015335
104.800,0.015334
104.850,0.015332
104.900,0.015330
104.950,0.015328
105.000,0.015326
105.050,0.015324
105.100,0.015322
105.150,0.015320
105.200,0.015318
105.250,0.015317
105.300,0.015317
105.350,0.015317
105.400,0.015318
105.450,0.015320
105.500,0.015325
105.550,0.015335
105.600,0.015353
105.650,0.015396
105.700,0.015524
105.750,0.015775
105.800,0.015903
105.850,0.015952
105.900,0.015977
105.950,0.015990
106.000,0.015998
106.050,0.016002
106.100,0.016004
106.150,0.016005
106.200,0.016004
106.250,0.016003
106.300,0.016001
106.350,0.015999
106.400,0.015997
106.450,0.015994
106.500,0.015992
106.550,0.015990
106.600,0.015988
106.650,0.015987
106.700,0.015985
106.750,0.015985
106.800,0.015984
106.850,0.015985
106.900,0.015988
106.950,0.015993
107.000,0.016002
107.050,0.016020
107.100,0.016062
107.150,0.016185
107.200,0.016452
107.250,0.016602
107.300,0.016658
107.350,0.016685
107.400,0.016700
107.450,0.016709
107.500,0.016714
107.550,0.016716
107.600,0.016717
107.650,0.016716
107.700,0.016715
107.750,0.016713
107.800,0.016711
107.850,0.016708
107.900,0.016706
107.950,0.016704
108.000,0.016702
108.050,0.016699
108.100,0.016698
108.150,0.016696
108.200,0.016695
108.250,0.016695
108.300,0.016696
108.350,0.016699
108.400,0.016704
108.450,0.016713
108.500,0.016731
108.550,0.016771
108.600,0.016886
108.650,0.017165
108.700,0.017342
108.750,0.017407
108.800,0.017438
108.850,0.017456
108.900,0.017465
108.950,0.017471
109.000,0.017473
109.050,0.017474
109.100,0.017474
109.150,0.017472
109.200,0.017471
109.250,0.017468
109.300,0.017466
109.350,0.017464
109.400,0.017461
109.450,0.017459
109.500,0.017457
109.550,0.017455
109.600,0.017453
109.650,0.017452
109.700,0.017452
109.750,0.017453
109.800,0.017455
109.850,0.017460
109.900,0.017469
109.950,0.017486
110.000,0.017523
110.050,0.017625
110.100,0.017901
110.150,0.018121
110.200,0.018201
110.250,0.018238
110.300,0.018258
110.350,0.018270
110.400,0.018276
110.450,0.018279
110.500,0.018280
110.550,0.018280
110.600,0.018279
110.650,0.018277
110.700,0.018275
110.750,0.018272
110.800,0.018270
110.850,0.018267
110.900,0.018265
110.950,0.018262
111.000,0.018260
111.050,0.018258
111.100,0.018257
111.150,0.018257
111.200,0.018257
111.250,0.018259
111.300,0.018264
111.350,0.018272
111.400,0.018287
111.450,0.018318
111.500,0.018396
111.550,0.018631
111.600,0.018921
111.650,0.019036
111.700,0.019086
111.750,0.019112
111.800,0.019127
111.850,0.019135
111.900,0.019139
111.950,0.019141
112.000,0.019141
112.050,0.019140
112.100,0.019139
112.150,0.019136
112.200,0.019134
112.250,0.019131
112.300,0.019128
112.350,0.019126
112.400,0.019123
112.450,0.019121
112.500,0.019119
112.550,0.019118
112.600,0.019117
112.650,0.019117
112.700,0.019119
112.750,0.019123
112.800,0.019130
112.850,0.019143
112.900,0.019169
112.950,0.019229
113.000,0.019407
113.050,0.019753
113.100,0.019929
113.150,0.019996
113.200,0.020030
113.250,0.020049
113.300,0.020060
113.350,0.020066
113.400,0.020068
113.450,0.020069
113.500,0.020069
113.550,0.020067
113.600,0.020065
113.650,0.020062
113.700,0.020059
113.750,0.020057
113.800,0.020054
113.850,0.020051
113.900,0.020049
113.950,0.020046
114.000,0.020045
114.050,0.020044
114.100,0.020044
114.150,0.020046
114.200,0.020050
114.250,0.020057
114.300,0.020070
114.350,0.020096
114.400,0.020154
114.450,0.020325
114.500,0.020696
114.550,0.020903
114.600,0.020981
114.650,0.021019
114.700,0.021040
114.750,0.021052
114.800,0.021059
114.850,0.021062
114.900,0.021063
114.950,0.021063
115.000,0.021061
115.050,0.021059
115.100,0.021056
115.150,0.021053
115.200,0.021050
115.250,0.021047
115.300,0.021044
115.350,0.021042
115.400,0.021040
115.450,0.021038
115.500,0.021037
115.550,0.021037
115.600,0.021039
115.650,0.021042
115.700,0.021050
115.750,0.021063
115.800,0.021088
115.850,0.021145
115.900,0.021308
115.950,0.021698
116.000,0.021944
116.050,0.022034
116.100,0.022078
116.150,0.022102
116.200,0.022115
116.250,0.022123
116.300,0.022127
116.350,0.022128
116.400,0.022128
116.450,0.022126
116.500,0.022124
116.550,0.022121
116.600,0.022118
116.650,0.022115
116.700,0.022112
116.750,0.022109
116.800,0.022106
116.850,0.022103
116.900,0.022101
116.950,0.022100
117.000,0.022100
117.050,0.022102
117.100,0.022105
117.150,0.022112
117.200,0.022125
117.250,0.022150
117.300,0.022203
117.350,0.022349
117.400,0.022742
117.450,0.023046
117.500,0.023156
117.550,0.023208
117.600,0.023236
117.650,0.023253
117.700,0.023262
117.750,0.023267
117.800,0.023268
117.850,0.023268
117.900,0.023267
117.950,0.023264
118.000,0.023261
118.050,0.023258
118.100,0.023255
118.150,0.023251
118.200,0.023248
118.250,0.023245
118.300,0.023242
118.350,0.023240
118.400,0.023239
118.450,0.023239
118.500,0.023240
118.550,0.023243
118.600,0.023250
118.650,0.023261
118.700,0.023283
118.750,0.023328
118.800,0.023443
118.850,0.023785
118.900,0.024188
118.950,0.024346
119.000,0.024415
119.050,0.024451
119.100,0.024472
119.150,0.024484
119.200,0.024490
119.250,0.024493
119.300,0.024494
119.350,0.024493
119.400,0.024490
119.450,0.024487
119.500,0.024484
119.550,0.024481
119.600,0.024477
119.650,0.024474
119.700,0.024470
119.750,0.024467
119.800,0.024465
119.850,0.024463
119.900,0.024463
119.950,0.024463
120.000,0.024466
120.050,0.024472
120.100,0.024482
120.150,0.024501
120.200,0.024539
120.250,0.024625
120.300,0.024883
120.350,0.025375
120.400,0.025622
120.450,0.025718
120.500,0.025766
120.550,0.025793
120.600,0.025809
120.650,0.025817
120.700,0.025822
120.750,0.025823
120.800,0.025822
120.850,0.025821
120.900,0.025818
120.950,0.025814
121.000,0.025811
121.050,0.025807
121.100,0.025803
121.150,0.025800
121.200,0.025797
121.250,0.025794
121.300,0.025792
121.350,0.025791
121.400,0.025792
121.450,0.025795
121.500,0.025800
121.550,0.025811
121.600,0.025830
121.650,0.025868
121.700,0.025952
121.750,0.026200
121.800,0.026732
121.850,0.027027
121.900,0.027138
121.950,0.027193
122.000,0.027223
122.050,0.027241
122.100,0.027251
122.150,0.027256
122.200,0.027258
122.250,0.027257
122.300,0.027256
122.350,0.027253
122.400,0.027249
122.450,0.027245
122.500,0.027241
122.550,0.027237
122.600,0.027234
122.650,0.027230
122.700,0.027227
122.750,0.027225
122.800,0.027224
122.850,0.027225
122.900,0.027228
122.950,0.027233
123.000,0.027244
123.050,0.027264
123.100,0.027301
123.150,0.027384
123.200,0.027621
123.250,0.028185
123.300,0.028538
123.350,0.028668
123.400,0.028731
123.450,0.028765
123.500,0.028786
123.550,0.028797
123.600,0.028803
123.650,0.028806
123.700,0.028805
123.750,0.028803
123.800,0.028801
123.850,0.028797
123.900,0.028793
123.950,0.028789
124.000,0.028784
124.050,0.028780
124.100,0.028777
124.150,0.028774
124.200,0.028771
124.250,0.028770
124.300,0.028770
124.350,0.028773
124.400,0.028779
124.450,0.028789
124.500,0.028809
124.550,0.028845
124.600,0.028923
124.650,0.029137
124.700,0.029710
124.750,0.030149
124.800,0.030309
124.850,0.030385
124.900,0.030426
124.950,0.030450
125.000,0.030464
125.050,0.030471
125.100,0.030474
125.150,0.030474
125.200,0.030472
125.250,0.030469
125.300,0.030466
125.350,0.030461
125.400,0.030457
125.450,0.030452
125.500,0.030448
125.550,0.030444
125.600,0.030440
125.650,0.030438
125.700,0.030436
125.750,0.030436
125.800,0.030438
125.850,0.030444
125.900,0.030454
125.950,0.030472
126.000,0.030504
126.050,0.030571
126.100,0.030741
126.150,0.031248
126.200,0.031833
126.250,0.032062
126.300,0.032162
126.350,0.032215
126.400,0.032245
126.450,0.032263
126.500,0.032273
126.550,0.032278
126.600,0.032279
126.650,0.032277
126.700,0.032275
126.750,0.032271
126.800,0.032267
126.850,0.032262
126.900,0.032257
126.950,0.032252
127.000,0.032248
127.050,0.032244
127.100,0.032241
127.150,0.032239
127.200,0.032239
127.250,0.032240
127.300,0.032245
127.350,0.032254
127.400,0.032270
127.450,0.032298
127.500,0.032354
127.550,0.032483
127.600,0.032864
127.650,0.033589
127.700,0.033952
127.750,0.034093
127.800,0.034163
127.850,0.034204
127.900,0.034227
127.950,0.034240
128.000,0.034247
128.050,0.034250
128.100,0.034249
128.150,0.034247
128.200,0.034243
128.250,0.034239
128.300,0.034234
128.350,0.034229
128.400,0.034224
128.450,0.034219
128.500,0.034215
128.550,0.034212
128.600,0.034209
128.650,0.034209
128.700,0.034210
128.750,0.034215
128.800,0.034224
128.850,0.034240
128.900,0.034269
128.950,0.034325
129.000,0.034451
129.050,0.034819
129.100,0.035608
129.150,0.036045
129.200,0.036211
129.250,0.036292
129.300,0.036338
129.350,0.036365
129.400,0.036380
129.450,0.036388
129.500,0.036392
129.550,0.036391
129.600,0.036389
129.650,0.036385
129.700,0.036381
129.750,0.036376
129.800,0.036370
129.850,0.036365
129.900,0.036360
129.950,0.036355
130.000,0.036352
130.050,0.036349
130.100,0.036348
130.150,0.036350
130.200,0.036354
130.250,0.036363
130.300,0.036380
130.350,0.036410
130.400,0.036466
130.450,0.036590
130.500,0.036944
130.550,0.037786
130.600,0.038314
130.650,0.038509
130.700,0.038603
130.750,0.038656
130.800,0.038687
130.850,0.038705
130.900,0.038714
130.950,0.038719
131.000,0.038719
131.050,0.038717
131.100,0.038713
131.150,0.038708
131.200,0.038703
131.250,0.038697
131.300,0.038692
131.350,0.038686
131.400,0.038682
131.450,0.038678
131.500,0.038675
131.550,0.038674
131.600,0.038676
131.650,0.038680
131.700,0.038690
131.750,0.038707
131.800,0.038737
131.850,0.038792
131.900,0.038910
131.950,0.039231
132.000,0.040091
132.050,0.040754
132.100,0.040997
132.150,0.041111
132.200,0.041174
132.250,0.041212
132.300,0.041233
132.350,0.041246
132.400,0.041252
132.450,0.041253
132.500,0.041252
132.550,0.041249
132.600,0.041245
132.650,0.041240
132.700,0.041235
132.750,0.041230
132.800,0.041225
132.850,0.041221
132.900,0.041218
132.950,0.041217
133.000,0.041217
133.050,0.041219
133.100,0.041225
133.150,0.041235
133.200,0.041253
133.250,0.041282
133.300,0.041334
133.350,0.041437
133.400,0.041694
133.450,0.042455
133.500,0.043348
133.550,0.043701
133.600,0.043856
133.650,0.043940
133.700,0.043990
133.750,0.044021
133.800,0.044040
133.850,0.044052
133.900,0.044060
133.950,0.044064
134.000,0.044066
134.050,0.044068
134.100,0.044069
134.150,0.044070
134.200,0.044071
134.250,0.044072
134.300,0.044074
134.350,0.044077
134.400,0.044081
134.450,0.044086
134.500,0.044094
134.550,0.044105
134.600,0.044120
134.650,0.044141
134.700,0.044173
134.750,0.044223
134.800,0.044314
134.850,0.044515
134.900,0.045097
134.950,0.046207
135.000,0.046773
135.050,0.047004
135.100,0.047134
135.150,0.047224
135.200,0.047292
135.250,0.047349
135.300,0.047398
135.350,0.047441
135.400,0.047481
135.450,0.047517
135.500,0.047549
135.550,0.047579
135.600,0.047605
135.650,0.047628
135.700,0.047648
135.750,0.047666
135.800,0.047680
135.850,0.047692
135.900,0.047702
135.950,0.047711
136.000,0.047720
136.050,0.047731
136.100,0.047747
136.150,0.047773
136.200,0.047818
136.250,0.047907
136.300,0.048116
136.350,0.048728
136.400,0.050060
136.450,0.051024
136.500,0.051639
136.550,0.052107
136.600,0.052476
136.650,0.052767
136.700,0.052990
136.750,0.053153
136.800,0.053262
136.850,0.053322
136.900,0.053339
136.950,0.053317
137.000,0.053261
137.050,0.053176
137.100,0.053065
137.150,0.052933
137.200,0.052784
137.250,0.052624
137.300,0.052457
137.350,0.052290
137.400,0.052130
137.450,0.051989
137.500,0.051883
137.550,0.051841
137.600,0.051919
137.650,0.052253
137.700,0.053235
137.750,0.056371
137.800,0.065832
137.850,0.073106
137.900,0.073957
137.950,0.072855
138.000,0.071063
138.050,0.068987
138.100,0.066797
138.150,0.064580
138.200,0.062381
138.250,0.060225
138.300,0.058125
138.350,0.056079
138.400,0.054070
138.450,0.052064
138.500,0.049995
138.550,0.047728
138.600,0.044966
138.650,0.040880
138.700,0.032404
138.750,0.008033
138.800,-0.020452
138.850,-0.030030
138.900,-0.033355
138.950,-0.034585
139.000,-0.034913
139.050,-0.034791
139.100,-0.034428
139.150,-0.033929
139.200,-0.033355
139.250,-0.032741
139.300,-0.032110
139.350,-0.031474
139.400,-0.030843
139.450,-0.030220
139.500,-0.029609
139.550,-0.029011
139.600,-0.028428
139.650,-0.027859
139.700,-0.027306
139.750,-0.026767
139.800,-0.026242
139.850,-0.025731
139.900,-0.025234
139.950,-0.024749
140.000,-0.024278
140.050,-0.023818
140.100,-0.023370
140.150,-0.022934
140.200,-0.022508
140.250,-0.022094
140.300,-0.021689
140.350,-0.021294
140.400,-0.020909
140.450,-0.020533
140.500,-0.020166
140.550,-0.019807
140.600,-0.019457
140.650,-0.019115
140.700,-0.018781
140.750,-0.018454
140.800,-0.018135
140.850,-0.017822
140.900,-0.017517
140.950,-0.017218
141.000,-0.016925
141.050,-0.016639
141.100,-0.016359
141.150,-0.016085
141.200,-0.015816
141.250,-0.015553
141.300,-0.015296
141.350,-0.015043
141.400,-0.014796
141.450,-0.014554
141.500,-0.014316
141.550,-0.014084
141.600,-0.013855
141.650,-0.013631
141.700,-0.013412
141.750,-0.013197
141.800,-0.012985
141.850,-0.012778
141.900,-0.012575
141.950,-0.012376
142.000,-0.012180
142.050,-0.011988
142.100,-0.011799
142.150,-0.011614
142.200,-0.011432
142.250,-0.011254
142.300,-0.011078
142.350,-0.010906
142.400,-0.010738
142.450,-0.010572
142.500,-0.010409
142.550,-0.010249
142.600,-0.010092
142.650,-0.009937
142.700,-0.009785
142.750,-0.009636
142.800,-0.009490
142.850,-0.009346
142.900,-0.009205
142.950,-0.009066
143.000,-0.008929
143.050,-0.008795
143.100,-0.008663
143.150,-0.008534
143.200,-0.008406
143.250,-0.008281
143.300,-0.008158
143.350,-0.008037
143.400,-0.007919
143.450,-0.007802
143.500,-0.007687
143.550,-0.007574
143.600,-0.007463
143.650,-0.007354
143.700,-0.007247
143.750,-0.007142
143.800,-0.007038
143.850,-0.006936
143.900,-0.006836
143.950,-0.006738
144.000,-0.006641
144.050,-0.006546
144.100,-0.006453
144.150,-0.006361
144.200,-0.006271
144.250,-0.006182
144.300,-0.006095
144.350,-0.006009
144.400,-0.005925
144.450,-0.005842
144.500,-0.005760
144.550,-0.005680
144.600,-0.005601
144.650,-0.005523
144.700,-0.005447
144.750,-0.005372
144.800,-0.005299
144.850,-0.005226
144.900,-0.005155
144.950,-0.005085
145.000,-0.005016
145.050,-0.004949
145.100,-0.004882
145.150,-0.004817
145.200,-0.004753
145.250,-0.004689
145.300,-0.004627
145.350,-0.004566
145.400,-0.004506
145.450,-0.004447
145.500,-0.004389
145.550,-0.004332
145.600,-0.004276
145.650,-0.004221
145.700,-0.004167
145.750,-0.004113
145.800,-0.004061
145.850,-0.004010
145.900,-0.003959
145.950,-0.003909
146.000,-0.003861
146.050,-0.003813
146.100,-0.003766
146.150,-0.003719
146.200,-0.003674
146.250,-0.003629
146.300,-0.003585
146.350,-0.003542
146.400,-0.003499
146.450,-0.003457
146.500,-0.003416
146.550,-0.003376
146.600,-0.003336
146.650,-0.003297
146.700,-0.003258
146.750,-0.003221
146.800,-0.003183
146.850,-0.003147
146.900,-0.003111
146.950,-0.003076
147.000,-0.003041
147.050,-0.003007
147.100,-0.002974
147.150,-0.002941
147.200,-0.002908
147.250,-0.002876
147.300,-0.002845
147.350,-0.002814
147.400,-0.002784
147.450,-0.002754
147.500,-0.002725
147.550,-0.002696
147.600,-0.002668
147.650,-0.002640
147.700,-0.002613
147.750,-0.002586
147.800,-0.002559
147.850,-0.002533
147.900,-0.002508
147.950,-0.002483
148.000,-0.002458
148.050,-0.002434
148.100,-0.002410
148.150,-0.002386
148.200,-0.002363
148.250,-0.002340
148.300,-0.002318
148.350,-0.002296
148.400,-0.002274
148.450,-0.002253
148.500,-0.002232
148.550,-0.002212
148.600,-0.002192
148.650,-0.002172
148.700,-0.002152
148.750,-0.002133
148.800,-0.002114
148.850,-0.002096
148.900,-0.002078
148.950,-0.002060
149.000,-0.002042
149.050,-0.002025
149.100,-0.002008
149.150,-0.001991
149.200,-0.001975
149.250,-0.001959
149.300,-0.001943
149.350,-0.001928
149.400,-0.001913
149.450,-0.001898
149.500,-0.001883
149.550,-0.001869
149.600,-0.001855
149.650,-0.001841
149.700,-0.001827
149.750,-0.001814
149.800,-0.001801
149.850,-0.001788
149.900,-0.001775
149.950,-0.001763
150.000,-0.001750
150.050,-0.001738
150.100,-0.001727
150.150,-0.001715
150.200,-0.001704
150.250,-0.001693
150.300,-0.001682
150.350,-0.001672
150.400,-0.001661
150.450,-0.001651
150.500,-0.001641
150.550,-0.001631
150.600,-0.001621
150.650,-0.001612
150.700,-0.001602
150.750,-0.001593
150.800,-0.001584
150.850,-0.001576
150.900,-0.001567
150.950,-0.001559
151.000,-0.001551
151.050,-0.001543
151.100,-0.001535
151.150,-0.001527
151.200,-0.001520
151.250,-0.001512
151.300,-0.001505
151.350,-0.001498
151.400,-0.001491
151.450,-0.001484
151.500,-0.001477
151.550,-0.001470
151.600,-0.001464
151.650,-0.001458
151.700,-0.001451
151.750,-0.001445
151.800,-0.001440
151.850,-0.001434
151.900,-0.001429
151.950,-0.001423
152.000,-0.001418
152.050,-0.001413
152.100,-0.001408
152.150,-0.001403
152.200,-0.001398
152.250,-0.001393
152.300,-0.001389
152.350,-0.001384
152.400,-0.001380
152.450,-0.001376
152.500,-0.001371
152.550,-0.001367
152.600,-0.001363
152.650,-0.001359
152.700,-0.001355
152.750,-0.001352
152.800,-0.001348
152.850,-0.001344
152.900,-0.001341
152.950,-0.001338
153.000,-0.001334
153.050,-0.001331
153.100,-0.001328
153.150,-0.001325
153.200,-0.001322
153.250,-0.001320
153.300,-0.001317
153.350,-0.001314
153.400,-0.001312
153.450,-0.001309
153.500,-0.001307
153.550,-0.001304
153.600,-0.001302
153.650,-0.001300
153.700,-0.001298
153.750,-0.001296
153.800,-0.001294
153.850,-0.001292
153.900,-0.001290
153.950,-0.001288
154.000,-0.001286
154.050,-0.001285
154.100,-0.001283
154.150,-0.001281
154.200,-0.001280
154.250,-0.001278
154.300,-0.001277
154.350,-0.001276
154.400,-0.001275
154.450,-0.001273
154.500,-0.001272
154.550,-0.001271
154.600,-0.001270
154.650,-0.001269
154.700,-0.001269
154.750,-0.001268
154.800,-0.001267
154.850,-0.001266
154.900,-0.001266
154.950,-0.001265
155.000,-0.001265
155.050,-0.001264
155.100,-0.001264
155.150,-0.001263
155.200,-0.001263
155.250,-0.001263
155.300,-0.001262
155.350,-0.001262
155.400,-0.001262
155.450,-0.001262
155.500,-0.001262
155.550,-0.001262
155.600,-0.001262
155.650,-0.001262
155.700,-0.001262
155.750,-0.001262
155.800,-0.001263
155.850,-0.001263
155.900,-0.001263
155.950,-0.001264
156.000,-0.001264
156.050,-0.001265
156.100,-0.001265
156.150,-0.001266
156.200,-0.001266
156.250,-0.001267
156.300,-0.001268
156.350,-0.001268
156.400,-0.001269
156.450,-0.001270
156.500,-0.001271
156.550,-0.001271
156.600,-0.001272
156.650,-0.001273
156.700,-0.001274
156.750,-0.001275
156.800,-0.001276
156.850,-0.001277
156.900,-0.001278
156.950,-0.001280
157.000,-0.001281
157.050,-0.001282
157.100,-0.001283
157.150,-0.001285
157.200,-0.001286
157.250,-0.001287
157.300,-0.001289
157.350,-0.001290
157.400,-0.001292
157.450,-0.001293
157.500,-0.001295
157.550,-0.001296
157.600,-0.001298
157.650,-0.001299
157.700,-0.001301
157.750,-0.001303
157.800,-0.001305
157.850,-0.001306
157.900,-0.001308
157.950,-0.001310
158.000,-0.001312
158.050,-0.001314
158.100,-0.001316
158.150,-0.001317
158.200,-0.001319
158.250,-0.001321
158.300,-0.001323
158.350,-0.001325
158.400,-0.001327
158.450,-0.001329
158.500,-0.001331
158.550,-0.001333
158.600,-0.001335
158.650,-0.001338
158.700,-0.001340
158.750,-0.001342
158.800,-0.001344
158.850,-0.001346
158.900,-0.001348
158.950,-0.001350
159.000,-0.001353
159.050,-0.001355
159.100,-0.001357
159.150,-0.001359
159.200,-0.001362
159.250,-0.001364
159.300,-0.001366
159.350,-0.001368
159.400,-0.001371
159.450,-0.001373
159.500,-0.001375
159.550,-0.001378
159.600,-0.001380
159.650,-0.001382
159.700,-0.001385
159.750,-0.001387
159.800,-0.001389
159.850,-0.001392
159.900,-0.001394
159.950,-0.001396
160.000,-0.001399
160.050,-0.001401
160.100,-0.001404
160.150,-0.001406
160.200,-0.001409
160.250,-0.001411
160.300,-0.001414
160.350,-0.001416
160.400,-0.001419
160.450,-0.001421
160.500,-0.001424
160.550,-0.001426
160.600,-0.001429
160.650,-0.001431
160.700,-0.001434
160.750,-0.001436
160.800,-0.001439
160.850,-0.001441
160.900,-0.001444
160.950,-0.001446
161.000,-0.001449
161.050,-0.001452
161.100,-0.001454
161.150,-0.001457
161.200,-0.001460
161.250,-0.001462
161.300,-0.001465
161.350,-0.001468
161.400,-0.001470
161.450,-0.001473
161.500,-0.001476
161.550,-0.001479
161.600,-0.001481
161.650,-0.001484
161.700,-0.001487
161.750,-0.001490
161.800,-0.001492
161.850,-0.001495
161.900,-0.001498
161.950,-0.001501
162.000,-0.001504
162.050,-0.001507
162.100,-0.001509
162.150,-0.001512
162.200,-0.001515
162.250,-0.001518
162.300,-0.001521
162.350,-0.001524
162.400,-0.001527
162.450,-0.001530
162.500,-0.001533
162.550,-0.001536
162.600,-0.001539
162.650,-0.001542
162.700,-0.001545
162.750,-0.001548
162.800,-0.001551
162.850,-0.001554
162.900,-0.001557
162.950,-0.001560
163.000,-0.001563
163.050,-0.001567
163.100,-0.001570
163.150,-0.001573
163.200,-0.001576
163.250,-0.001579
163.300,-0.001582
163.350,-0.001585
163.400,-0.001588
163.450,-0.001591
163.500,-0.001594
163.550,-0.001597
163.600,-0.001601
163.650,-0.001604
163.700,-0.001607
163.750,-0.001610
163.800,-0.001613
163.850,-0.001616
163.900,-0.001619
163.950,-0.001622
164.000,-0.001625
164.050,-0.001629
164.100,-0.001632
164.150,-0.001635
164.200,-0.001638
164.250,-0.001641
164.300,-0.001645
164.350,-0.001648
164.400,-0.001651
164.450,-0.001655
164.500,-0.001658
164.550,-0.001661
164.600,-0.001665
164.650,-0.001668
164.700,-0.001671
164.750,-0.001674
164.800,-0.001678
164.850,-0.001681
164.900,-0.001685
164.950,-0.001688
165.000,-0.001691
165.050,-0.001695
165.100,-0.001698
165.150,-0.001701
165.200,-0.001705
165.250,-0.001708
165.300,-0.001711
165.350,-0.001715
165.400,-0.001718
165.450,-0.001722
165.500,-0.001725
165.550,-0.001728
165.600,-0.001732
165.650,-0.001735
165.700,-0.001739
165.750,-0.001742
165.800,-0.001746
165.850,-0.001749
165.900,-0.001753
165.950,-0.001756
166.000,-0.001760
166.050,-0.001763
166.100,-0.001767
166.150,-0.001770
166.200,-0.001774
166.250,-0.001777
166.300,-0.001781
166.350,-0.001784
166.400,-0.001788
166.450,-0.001791
166.500,-0.001795
166.550,-0.001798
166.600,-0.001802
166.650,-0.001805
166.700,-0.001809
166.750,-0.001812
166.800,-0.001816
166.850,-0.001819
166.900,-0.001823
166.950,-0.001826
167.000,-0.001830
167.050,-0.001834
167.100,-0.001837
167.150,-0.001841
167.200,-0.001844
167.250,-0.001848
167.300,-0.001851
167.350,-0.001855
167.400,-0.001858
167.450,-0.001862
167.500,-0.001865
167.550,-0.001869
167.600,-0.001873
167.650,-0.001876
167.700,-0.001880
167.750,-0.001883
167.800,-0.001887
167.850,-0.001890
167.900,-0.001894
167.950,-0.001898
168.000,-0.001901
168.050,-0.001905
168.100,-0.001909
168.150,-0.001912
168.200,-0.001916
168.250,-0.001920
168.300,-0.001923
168.350,-0.001927
168.400,-0.001931
168.450,-0.001934
168.500,-0.001938
168.550,-0.001942
168.600,-0.001945
168.650,-0.001949
168.700,-0.001953
168.750,-0.001957
168.800,-0.001960
168.850,-0.001964
168.900,-0.001968
168.950,-0.001971
169.000,-0.001975
169.050,-0.001979
169.100,-0.001983
169.150,-0.001986
169.200,-0.001990
169.250,-0.001994
169.300,-0.001998
169.350,-0.002001
169.400,-0.002005
169.450,-0.002009
169.500,-0.002012
169.550,-0.002016
169.600,-0.002020
169.650,-0.002024
169.700,-0.002027
169.750,-0.002031
169.800,-0.002035
169.850,-0.002039
169.900,-0.002042
169.950,-0.002046
170.000,-0.002050
170.050,-0.002053
170.100,-0.002057
170.150,-0.002061
170.200,-0.002064
170.250,-0.002068
170.300,-0.002072
170.350,-0.002075
170.400,-0.002079
170.450,-0.002083
170.500,-0.002087
170.550,-0.002090
170.600,-0.002094
170.650,-0.002098
170.700,-0.002101
170.750,-0.002105
170.800,-0.002108
170.850,-0.002112
170.900,-0.002116
170.950,-0.002119
171.000,-0.002123
171.050,-0.002127
171.100,-0.002130
171.150,-0.002134
171.200,-0.002137
171.250,-0.002141
171.300,-0.002145
171.350,-0.002148
171.400,-0.002152
171.450,-0.002156
171.500,-0.002159
171.550,-0.002163
171.600,-0.002166
171.650,-0.002170
171.700,-0.002174
171.750,-0.002177
171.800,-0.002181
171.850,-0.002184
171.900,-0.002188
171.950,-0.002192
172.000,-0.002195
172.050,-0.002199
172.100,-0.002203
172.150,-0.002206
172.200,-0.002210
172.250,-0.002214
172.300,-0.002217
172.350,-0.002221
172.400,-0.002225
172.450,-0.002228
172.500,-0.002232
172.550,-0.002236
172.600,-0.002239
172.650,-0.002243
172.700,-0.002247
172.750,-0.002250
172.800,-0.002254
172.850,-0.002258
172.900,-0.002261
172.950,-0.002265
173.000,-0.002269
173.050,-0.002272
173.100,-0.002276
173.150,-0.002280
173.200,-0.002283
173.250,-0.002287
173.300,-0.002291
173.350,-0.002295
173.400,-0.002298
173.450,-0.002302
173.500,-0.002306
173.550,-0.002309
173.600,-0.002313
173.650,-0.002317
173.700,-0.002320
173.750,-0.002324
173.800,-0.002328
173.850,-0.002331
173.900,-0.002335
173.950,-0.002339
174.000,-0.002342
174.050,-0.002346
174.100,-0.002349
174.150,-0.002353
174.200,-0.002357
174.250,-0.002360
174.300,-0.002364
174.350,-0.002368
174.400,-0.002371
174.450,-0.002375
174.500,-0.002379
174.550,-0.002382
174.600,-0.002386
174.650,-0.002390
174.700,-0.002393
174.750,-0.002397
174.800,-0.002400
174.850,-0.002404
174.900,-0.002408
174.950,-0.002411
175.000,-0.002415
175.050,-0.002418
175.100,-0.002422
175.150,-0.002426
175.200,-0.002429
175.250,-0.002433
175.300,-0.002436
175.350,-0.002440
175.400,-0.002443
175.450,-0.002447
175.500,-0.002450
175.550,-0.002454
175.600,-0.002457
175.650,-0.002461
175.700,-0.002464
175.750,-0.002468
175.800,-0.002472
175.850,-0.002475
175.900,-0.002479
175.950,-0.002482
176.000,-0.002486
176.050,-0.002489
176.100,-0.002493
176.150,-0.002496
176.200,-0.002500
176.250,-0.002503
176.300,-0.002507
176.350,-0.002510
176.400,-0.002514
176.450,-0.002517
176.500,-0.002521
176.550,-0.002524
176.600,-0.002528
176.650,-0.002531
176.700,-0.002535
176.750,-0.002538
176.800,-0.002542
176.850,-0.002545
176.900,-0.002549
176.950,-0.002552
177.000,-0.002556
177.050,-0.002559
177.100,-0.002563
177.150,-0.002566
177.200,-0.002570
177.250,-0.002573
177.300,-0.002577
177.350,-0.002580
177.400,-0.002584
177.450,-0.002587
177.500,-0.002591
177.550,-0.002594
177.600,-0.002598
177.650,-0.002601
177.700,-0.002605
177.750,-0.002608
177.800,-0.002612
177.850,-0.002615
177.900,-0.002619
177.950,-0.002622
178.000,-0.002626
178.050,-0.002629
178.100,-0.002633
178.150,-0.002636
178.200,-0.002640
178.250,-0.002643
178.300,-0.002647
178.350,-0.002650
178.400,-0.002654
178.450,-0.002657
178.500,-0.002661
178.550,-0.002664
178.600,-0.002668
178.650,-0.002671
178.700,-0.002675
178.750,-0.002678
178.800,-0.002682
178.850,-0.002685
178.900,-0.002689
178.950,-0.002692
179.000,-0.002696
179.050,-0.002699
179.100,-0.002703
179.150,-0.002706
179.200,-0.002710
179.250,-0.002713
179.300,-0.002717
179.350,-0.002720
179.400,-0.002724
179.450,-0.002727
179.500,-0.002731
179.550,-0.002734
179.600,-0.002738
179.650,-0.002741
179.700,-0.002745
179.750,-0.002748
179.800,-0.002752
179.850,-0.002756
179.900,-0.002759
179.950,-0.002763
180.000,-0.002766
180.050,-0.002770
180.100,-0.002773
180.150,-0.002777
180.200,-0.002780
180.250,-0.002784
180.300,-0.002787
180.350,-0.002791
180.400,-0.002794
180.450,-0.002798
180.500,-0.002801
180.550,-0.002805
180.600,-0.002808
180.650,-0.002812
180.700,-0.002816
180.750,-0.002819
180.800,-0.002823
180.850,-0.002826
180.900,-0.002830
180.950,-0.002833
181.000,-0.002837
181.050,-0.002840
181.100,-0.002844
181.150,-0.002847
181.200,-0.002851
181.250,-0.002854
181.300,-0.002857
181.350,-0.002861
181.400,-0.002864
181.450,-0.002868
181.500,-0.002871
181.550,-0.002875
181.600,-0.002878
181.650,-0.002882
181.700,-0.002885
181.750,-0.002889
181.800,-0.002892
181.850,-0.002896
181.900,-0.002899
181.950,-0.002903
182.000,-0.002906
182.050,-0.002910
182.100,-0.002913
182.150,-0.002917
182.200,-0.002920
182.250,-0.002924
182.300,-0.002927
182.350,-0.002931
182.400,-0.002934
182.450,-0.002938
182.500,-0.002941
182.550,-0.002945
182.600,-0.002948
182.650,-0.002952
182.700,-0.002955
182.750,-0.002959
182.800,-0.002962
182.850,-0.002966
182.900,-0.002969
182.950,-0.002973
183.000,-0.002977
183.050,-0.002980
183.100,-0.002984
183.150,-0.002987
183.200,-0.002991
183.250,-0.002994
183.300,-0.002998
183.350,-0.003001
183.400,-0.003005
183.450,-0.003008
183.500,-0.003012
183.550,-0.003015
183.600,-0.003019
183.650,-0.003022
183.700,-0.003026
183.750,-0.003029
183.800,-0.003033
183.850,-0.003037
183.900,-0.003040
183.950,-0.003044
184.000,-0.003047
184.050,-0.003051
184.100,-0.003054
184.150,-0.003058
184.200,-0.003061
184.250,-0.003065
184.300,-0.003068
184.350,-0.003072
184.400,-0.003075
184.450,-0.003079
184.500,-0.003082
184.550,-0.003086
184.600,-0.003089
184.650,-0.003093
184.700,-0.003096
184.750,-0.003100
184.800,-0.003103
184.850,-0.003107
184.900,-0.003110
184.950,-0.003114
185.000,-0.003118
185.050,-0.003121
185.100,-0.003125
185.150,-0.003128
185.200,-0.003132
185.250,-0.003135
185.300,-0.003139
185.350,-0.003142
185.400,-0.003146
185.450,-0.003149
185.500,-0.003153
185.550,-0.003156
185.600,-0.003160
185.650,-0.003164
185.700,-0.003167
185.750,-0.003171
185.800,-0.003174
185.850,-0.003178
185.900,-0.003181
185.950,-0.003185
186.000,-0.003189
186.050,-0.003192
186.100,-0.003196
186.150,-0.003199
186.200,-0.003203
186.250,-0.003206
186.300,-0.003210
186.350,-0.003214
186.400,-0.003217
186.450,-0.003221
186.500,-0.003224
186.550,-0.003228
186.600,-0.003231
186.650,-0.003235
186.700,-0.003239
186.750,-0.003242
186.800,-0.003246
186.850,-0.003249
186.900,-0.003253
186.950,-0.003256
187.000,-0.003260
187.050,-0.003264
187.100,-0.003267
187.150,-0.003271
187.200,-0.003274
187.250,-0.003278
187.300,-0.003282
187.350,-0.003285
187.400,-0.003289
187.450,-0.003292
187.500,-0.003296
187.550,-0.003300
187.600,-0.003303
187.650,-0.003307
187.700,-0.003310
187.750,-0.003314
187.800,-0.003318
187.850,-0.003321
187.900,-0.003325
187.950,-0.003328
188.000,-0.003332
188.050,-0.003336
188.100,-0.003339
188.150,-0.003343
188.200,-0.003346
188.250,-0.003350
188.300,-0.003353
188.350,-0.003357
188.400,-0.003361
188.450,-0.003364
188.500,-0.003368
188.550,-0.003371
188.600,-0.003375
188.650,-0.003379
188.700,-0.003382
188.750,-0.003386
188.800,-0.003390
188.850,-0.003393
188.900,-0.003397
188.950,-0.003400
189.000,-0.003404
189.050,-0.003408
189.100,-0.003411
189.150,-0.003415
189.200,-0.003419
189.250,-0.003422
189.300,-0.003426
189.350,-0.003430
189.400,-0.003433
189.450,-0.003437
189.500,-0.003441
189.550,-0.003444
189.600,-0.003448
189.650,-0.003452
189.700,-0.003455
189.750,-0.003459
189.800,-0.003463
189.850,-0.003466
189.900,-0.003470
189.950,-0.003474
190.000,-0.003477
190.050,-0.003481
190.100,-0.003485
190.150,-0.003488
190.200,-0.003492
190.250,-0.003496
190.300,-0.003500
190.350,-0.003503
190.400,-0.003507
190.450,-0.003511
190.500,-0.003514
190.550,-0.003518
190.600,-0.003522
190.650,-0.003526
190.700,-0.003529
190.750,-0.003533
190.800,-0.003537
190.850,-0.003540
190.900,-0.003544
190.950,-0.003548
191.000,-0.003552
191.050,-0.003555
191.100,-0.003559
191.150,-0.003563
191.200,-0.003567
191.250,-0.003571
191.300,-0.003574
191.350,-0.003578
191.400,-0.003582
191.450,-0.003586
191.500,-0.003590
191.550,-0.003593
191.600,-0.003597
191.650,-0.003601
191.700,-0.003605
191.750,-0.003609
191.800,-0.003613
191.850,-0.003616
191.900,-0.003620
191.950,-0.003624
192.000,-0.003628
192.050,-0.003632
192.100,-0.003636
192.150,-0.003640
192.200,-0.003644
192.250,-0.003648
192.300,-0.003651
192.350,-0.003655
192.400,-0.003659
192.450,-0.003663
192.500,-0.003667
192.550,-0.003671
192.600,-0.003675
192.650,-0.003679
192.700,-0.003683
192.750,-0.003686
192.800,-0.003690
192.850,-0.003694
192.900,-0.003698
192.950,-0.003702
193.000,-0.003706
193.050,-0.003710
193.100,-0.003714
193.150,-0.003718
193.200,-0.003722
193.250,-0.003725
193.300,-0.003729
193.350,-0.003733
193.400,-0.003737
193.450,-0.003741
193.500,-0.003745
193.550,-0.003749
193.600,-0.003753
193.650,-0.003757
193.700,-0.003761
193.750,-0.003765
193.800,-0.003769
193.850,-0.003773
193.900,-0.003777
193.950,-0.003781
194.000,-0.003785
194.050,-0.003789
194.100,-0.003793
194.150,-0.003797
194.200,-0.003801
194.250,-0.003805
194.300,-0.003809
194.350,-0.003813
194.400,-0.003817
194.450,-0.003821
194.500,-0.003826
194.550,-0.003830
194.600,-0.003834
194.650,-0.003838
194.700,-0.003842
194.750,-0.003846
194.800,-0.003850
194.850,-0.003854
194.900,-0.003858
194.950,-0.003862
195.000,-0.003866
195.050,-0.003871
195.100,-0.003875
195.150,-0.003879
195.200,-0.003883
195.250,-0.003887
195.300,-0.003891
195.350,-0.003895
195.400,-0.003899
195.450,-0.003904
195.500,-0.003908
195.550,-0.003912
195.600,-0.003916
195.650,-0.003920
195.700,-0.003924
195.750,-0.003929
195.800,-0.003933
195.850,-0.003937
195.900,-0.003941
195.950,-0.003945
196.000,-0.003950
196.050,-0.003954
196.100,-0.003958
196.150,-0.003962
196.200,-0.003967
196.250,-0.003971
196.300,-0.003975
196.350,-0.003979
196.400,-0.003984
196.450,-0.003988
196.500,-0.003992
196.550,-0.003996
196.600,-0.004001
196.650,-0.004005
196.700,-0.004009
196.750,-0.004014
196.800,-0.004018
196.850,-0.004022
196.900,-0.004026
196.950,-0.004031
197.000,-0.004035
197.050,-0.004040
197.100,-0.004044
197.150,-0.004048
197.200,-0.004053
197.250,-0.004057
197.300,-0.004061
197.350,-0.004066
197.400,-0.004070
197.450,-0.004075
197.500,-0.004079
197.550,-0.004084
197.600,-0.004088
197.650,-0.004092
197.700,-0.004097
197.750,-0.004101
197.800,-0.004106
197.850,-0.004110
197.900,-0.004115
197.950,-0.004119
198.000,-0.004124
198.050,-0.004128
198.100,-0.004133
198.150,-0.004137
198.200,-0.004142
198.250,-0.004146
198.300,-0.004151
198.350,-0.004155
198.400,-0.004160
198.450,-0.004164
198.500,-0.004169
198.550,-0.004173
198.600,-0.004178
198.650,-0.004183
198.700,-0.004187
198.750,-0.004192
198.800,-0.004196
198.850,-0.004201
198.900,-0.004206
198.950,-0.004210
199.000,-0.004215
199.050,-0.004219
199.100,-0.004224
199.150,-0.004229
199.200,-0.004233
199.250,-0.004238
199.300,-0.004243
199.350,-0.004247
199.400,-0.004252
199.450,-0.004257
199.500,-0.004261
199.550,-0.004266
199.600,-0.004271
199.650,-0.004276
199.700,-0.004280
199.750,-0.004285
199.800,-0.004290
199.850,-0.004294
199.900,-0.004299
199.950,-0.004304
200.000,-0.004309
200.050,-0.004314
200.100,-0.004318
200.150,-0.004323
200.200,-0.004328
200.250,-0.004333
200.300,-0.004337
200.350,-0.004342
200.400,-0.004347
200.450,-0.004352
200.500,-0.004357
200.550,-0.004361
200.600,-0.004366
200.650,-0.004371
200.700,-0.004376
200.750,-0.004381
200.800,-0.004386
200.850,-0.004390
200.900,-0.004395
200.950,-0.004400
201.000,-0.004405
201.050,-0.004410
201.100,-0.004415
201.150,-0.004420
201.200,-0.004425
201.250,-0.004429
201.300,-0.004434
201.350,-0.004439
201.400,-0.004444
201.450,-0.004449
201.500,-0.004454
201.550,-0.004459
201.600,-0.004464
201.650,-0.004469
201.700,-0.004474
201.750,-0.004479
201.800,-0.004484
201.850,-0.004489
201.900,-0.004494
201.950,-0.004499
202.000,-0.004504
202.050,-0.004509
202.100,-0.004514
202.150,-0.004519
202.200,-0.004524
202.250,-0.004529
202.300,-0.004534
202.350,-0.004539
202.400,-0.004544
202.450,-0.004549
202.500,-0.004555
202.550,-0.004560
202.600,-0.004565
202.650,-0.004570
202.700,-0.004575
202.750,-0.004580
202.800,-0.004585
202.850,-0.004590
202.900,-0.004595
202.950,-0.004600
203.000,-0.004605
203.050,-0.004611
203.100,-0.004616
203.150,-0.004621
203.200,-0.004626
203.250,-0.004631
203.300,-0.004636
203.350,-0.004641
203.400,-0.004647
203.450,-0.004652
203.500,-0.004657
203.550,-0.004662
203.600,-0.004667
203.650,-0.004672
203.700,-0.004678
203.750,-0.004683
203.800,-0.004688
203.850,-0.004693
203.900,-0.004698
203.950,-0.004703
204.000,-0.004709
204.050,-0.004714
204.100,-0.004719
204.150,-0.004724
204.200,-0.004729
204.250,-0.004735
204.300,-0.004740
204.350,-0.004745
204.400,-0.004750
204.450,-0.004756
204.500,-0.004761
204.550,-0.004766
204.600,-0.004771
204.650,-0.004776
204.700,-0.004782
204.750,-0.004787
204.800,-0.004792
204.850,-0.004797
204.900,-0.004803
204.950,-0.004808
205.000,-0.004813
205.050,-0.004818
205.100,-0.004823
205.150,-0.004829
205.200,-0.004834
205.250,-0.004839
205.300,-0.004844
205.350,-0.004850
205.400,-0.004855
205.450,-0.004860
205.500,-0.004865
205.550,-0.004871
205.600,-0.004876
205.650,-0.004881
205.700,-0.004886
205.750,-0.004892
205.800,-0.004897
205.850,-0.004902
205.900,-0.004907
205.950,-0.004912
206.000,-0.004918
206.050,-0.004923
206.100,-0.004928
206.150,-0.004933
206.200,-0.004939
206.250,-0.004944
206.300,-0.004949
206.350,-0.004954
206.400,-0.004959
206.450,-0.004965
206.500,-0.004970
206.550,-0.004975
206.600,-0.004980
206.650,-0.004986
206.700,-0.004991
206.750,-0.004996
206.800,-0.005001
206.850,-0.005006
206.900,-0.005012
206.950,-0.005017
207.000,-0.005022
207.050,-0.005027
207.100,-0.005032
207.150,-0.005037
207.200,-0.005043
207.250,-0.005048
207.300,-0.005053
207.350,-0.005058
207.400,-0.005063
207.450,-0.005068
207.500,-0.005074
207.550,-0.005079
207.600,-0.005084
207.650,-0.005089
207.700,-0.005094
207.750,-0.005099
207.800,-0.005104
207.850,-0.005109
207.900,-0.005115
207.950,-0.005120
208.000,-0.005125
208.050,-0.005130
208.100,-0.005135
208.150,-0.005140
208.200,-0.005145
208.250,-0.005150
208.300,-0.005155
208.350,-0.005160
208.400,-0.005165
208.450,-0.005170
208.500,-0.005175
208.550,-0.005180
208.600,-0.005185
208.650,-0.005190
208.700,-0.005195
208.750,-0.005200
208.800,-0.005205
208.850,-0.005210
208.900,-0.005215
208.950,-0.005220
209.000,-0.005225
209.050,-0.005230
209.100,-0.005235
209.150,-0.005240
209.200,-0.005245
209.250,-0.005250
209.300,-0.005255
209.350,-0.005260
209.400,-0.005265
209.450,-0.005269
209.500,-0.005274
209.550,-0.005279
209.600,-0.005284
209.650,-0.005289
209.700,-0.005294
209.750,-0.005299
209.800,-0.005303
209.850,-0.005308
209.900,-0.005313
209.950,-0.005318
210.000,-0.005323
210.050,-0.005328
210.100,-0.005332
210.150,-0.005337
210.200,-0.005342
210.250,-0.005347
210.300,-0.005351
210.350,-0.005356
210.400,-0.005361
210.450,-0.005365
210.500,-0.005370
210.550,-0.005375
210.600,-0.005379
210.650,-0.005384
210.700,-0.005389
210.750,-0.005393
210.800,-0.005398
210.850,-0.005403
210.900,-0.005407
210.950,-0.005412
211.000,-0.005416
211.050,-0.005421
211.100,-0.005425
211.150,-0.005430
211.200,-0.005434
211.250,-0.005439
211.300,-0.005444
211.350,-0.005448
211.400,-0.005453
211.450,-0.005457
211.500,-0.005461
211.550,-0.005466
211.600,-0.005470
211.650,-0.005475
211.700,-0.005479
211.750,-0.005484
211.800,-0.005488
211.850,-0.005492
211.900,-0.005497
211.950,-0.005501
212.000,-0.005506
212.050,-0.005510
212.100,-0.005514
212.150,-0.005519
212.200,-0.005523
212.250,-0.005527
212.300,-0.005532
212.350,-0.005536
212.400,-0.005540
212.450,-0.005545
212.500,-0.005549
212.550,-0.005553
212.600,-0.005557
212.650,-0.005561
212.700,-0.005566
212.750,-0.005570
212.800,-0.005574
212.850,-0.005578
212.900,-0.005582
212.950,-0.005587
213.000,-0.005591
213.050,-0.005595
213.100,-0.005599
213.150,-0.005603
213.200,-0.005607
213.250,-0.005611
213.300,-0.005616
213.350,-0.005620
213.400,-0.005624
213.450,-0.005628
213.500,-0.005632
213.550,-0.005636
213.600,-0.005640
213.650,-0.005644
213.700,-0.005648
213.750,-0.005652
213.800,-0.005656
213.850,-0.005660
213.900,-0.005664
213.950,-0.005668
214.000,-0.005672
214.050,-0.005676
214.100,-0.005680
214.150,-0.005684
214.200,-0.005688
214.250,-0.005691
214.300,-0.005695
214.350,-0.005699
214.400,-0.005703
214.450,-0.005707
214.500,-0.005711
214.550,-0.005715
214.600,-0.005719
214.650,-0.005722
214.700,-0.005726
214.750,-0.005730
214.800,-0.005734
214.850,-0.005738
214.900,-0.005741
214.950,-0.005745
215.000,-0.005749
215.050,-0.005753
215.100,-0.005756
215.150,-0.005760
215.200,-0.005764
215.250,-0.005768
215.300,-0.005771
215.350,-0.005775
215.400,-0.005779
215.450,-0.005782
215.500,-0.005786
215.550,-0.005790
215.600,-0.005793
215.650,-0.005797
215.700,-0.005801
215.750,-0.005804
215.800,-0.005808
215.850,-0.005812
215.900,-0.005815
215.950,-0.005819
216.000,-0.005822
216.050,-0.005826
216.100,-0.005830
216.150,-0.005833
216.200,-0.005837
216.250,-0.005840
216.300,-0.005844
216.350,-0.005847
216.400,-0.005851
216.450,-0.005854
216.500,-0.005858
216.550,-0.005861
216.600,-0.005865
216.650,-0.005868
216.700,-0.005872
216.750,-0.005875
216.800,-0.005879
216.850,-0.005882
216.900,-0.005886
216.950,-0.005889
217.000,-0.005892
217.050,-0.005896
217.100,-0.005899
217.150,-0.005903
217.200,-0.005906
217.250,-0.005909
217.300,-0.005913
217.350,-0.005916
217.400,-0.005920
217.450,-0.005923
217.500,-0.005926
217.550,-0.005930
217.600,-0.005933
217.650,-0.005936
217.700,-0.005940
217.750,-0.005943
217.800,-0.005946
217.850,-0.005950
217.900,-0.005953
217.950,-0.005956
218.000,-0.005959
218.050,-0.005963
218.100,-0.005966
218.150,-0.005969
218.200,-0.005973
218.250,-0.005976
218.300,-0.005979
218.350,-0.005982
218.400,-0.005986
218.450,-0.005989
218.500,-0.005992
218.550,-0.005995
218.600,-0.005999
218.650,-0.006002
218.700,-0.006005
218.750,-0.006008
218.800,-0.006011
218.850,-0.006015
218.900,-0.006018
218.950,-0.006021
219.000,-0.006024
219.050,-0.006027
219.100,-0.006031
219.150,-0.006034
219.200,-0.006037
219.250,-0.006040
219.300,-0.006043
219.350,-0.006046
219.400,-0.006050
219.450,-0.006053
219.500,-0.006056
219.550,-0.006059
219.600,-0.006062
219.650,-0.006065
219.700,-0.006068
219.750,-0.006071
219.800,-0.006075
219.850,-0.006078
219.900,-0.006081
219.950,-0.006084
220.000,-0.006087
220.050,-0.006090
220.100,-0.006093
220.150,-0.006096
220.200,-0.006099
220.250,-0.006103
220.300,-0.006106
220.350,-0.006109
220.400,-0.006112
220.450,-0.006115
220.500,-0.006118
220.550,-0.006121
220.600,-0.006124
220.650,-0.006127
220.700,-0.006130
220.750,-0.006133
220.800,-0.006136
220.850,-0.006139
220.900,-0.006143
220.950,-0.006146
221.000,-0.006149
221.050,-0.006152
221.100,-0.006155
221.150,-0.006158
221.200,-0.006161
221.250,-0.006164
221.300,-0.006167
221.350,-0.006170
221.400,-0.006173
221.450,-0.006176
221.500,-0.006179
221.550,-0.006182
221.600,-0.006185
221.650,-0.006188
221.700,-0.006191
221.750,-0.006194
221.800,-0.006197
221.850,-0.006200
221.900,-0.006203
221.950,-0.006206
222.000,-0.006209
222.050,-0.006212
222.100,-0.006215
222.150,-0.006218
222.200,-0.006221
222.250,-0.006224
222.300,-0.006227
222.350,-0.006230
222.400,-0.006233
222.450,-0.006236
222.500,-0.006239
222.550,-0.006242
222.600,-0.006245
222.650,-0.006248
222.700,-0.006251
222.750,-0.006254
222.800,-0.006257
222.850,-0.006260
222.900,-0.006263
222.950,-0.006266
223.000,-0.006269
223.050,-0.006272
223.100,-0.006275
223.150,-0.006278
223.200,-0.006281
223.250,-0.006284
223.300,-0.006286
223.350,-0.006289
223.400,-0.006292
223.450,-0.006295
223.500,-0.006298
223.550,-0.006301
223.600,-0.006304
223.650,-0.006307
223.700,-0.006310
223.750,-0.006313
223.800,-0.006316
223.850,-0.006319
223.900,-0.006322
223.950,-0.006325
224.000,-0.006328
224.050,-0.006331
224.100,-0.006334
224.150,-0.006337
224.200,-0.006339
224.250,-0.006342
224.300,-0.006345
224.350,-0.006348
224.400,-0.006351
224.450,-0.006354
224.500,-0.006357
224.550,-0.006360
224.600,-0.006363
224.650,-0.006366
224.700,-0.006369
224.750,-0.006371
224.800,-0.006374
224.850,-0.006377
224.900,-0.006380
224.950,-0.006383
225.000,-0.006386
225.050,-0.006389
225.100,-0.006392
225.150,-0.006395
225.200,-0.006398
225.250,-0.006400
225.300,-0.006403
225.350,-0.006406
225.400,-0.006409
225.450,-0.006412
225.500,-0.006415
225.550,-0.006418
225.600,-0.006421
225.650,-0.006424
225.700,-0.006426
225.750,-0.006429
225.800,-0.006432
225.850,-0.006435
225.900,-0.006438
225.950,-0.006441
226.000,-0.006444
226.050,-0.006447
226.100,-0.006450
226.150,-0.006453
226.200,-0.006455
226.250,-0.006458
226.300,-0.006461
226.350,-0.006464
226.400,-0.006467
226.450,-0.006470
226.500,-0.006473
226.550,-0.006476
226.600,-0.006479
226.650,-0.006482
226.700,-0.006485
226.750,-0.006487
226.800,-0.006490
226.850,-0.006493
226.900,-0.006496
226.950,-0.006499
227.000,-0.006502
227.050,-0.006505
227.100,-0.006508
227.150,-0.006511
227.200,-0.006514
227.250,-0.006517
227.300,-0.006519
227.350,-0.006522
227.400,-0.006525
227.450,-0.006528
227.500,-0.006531
227.550,-0.006534
227.600,-0.006537
227.650,-0.006540
227.700,-0.006543
227.750,-0.006546
227.800,-0.006548
227.850,-0.006551
227.900,-0.006554
227.950,-0.006557
228.000,-0.006560
228.050,-0.006563
228.100,-0.006566
228.150,-0.006569
228.200,-0.006572
228.250,-0.006575
228.300,-0.006578
228.350,-0.006581
228.400,-0.006583
228.450,-0.006586
228.500,-0.006589
228.550,-0.006592
228.600,-0.006595
228.650,-0.006598
228.700,-0.006601
228.750,-0.006604
228.800,-0.006607
228.850,-0.006610
228.900,-0.006613
228.950,-0.006616
229.000,-0.006619
229.050,-0.006622
229.100,-0.006625
229.150,-0.006627
229.200,-0.006630
229.250,-0.006633
229.300,-0.006636
229.350,-0.006639
229.400,-0.006642
229.450,-0.006645
229.500,-0.006648
229.550,-0.006651
229.600,-0.006654
229.650,-0.006657
229.700,-0.006660
229.750,-0.006663
229.800,-0.006666
229.850,-0.006669
229.900,-0.006672
229.950,-0.006674
230.000,-0.006677
230.050,-0.006680
230.100,-0.006683
230.150,-0.006686
230.200,-0.006689
230.250,-0.006692
230.300,-0.006695
230.350,-0.006698
230.400,-0.006701
230.450,-0.006704
230.500,-0.006707
230.550,-0.006710
230.600,-0.006713
230.650,-0.006716
230.700,-0.006719
230.750,-0.006722
230.800,-0.006725
230.850,-0.006728
230.900,-0.006731
230.950,-0.006734
231.000,-0.006737
231.050,-0.006740
231.100,-0.006743
231.150,-0.006746
231.200,-0.006749
231.250,-0.006752
231.300,-0.006755
231.350,-0.006758
231.400,-0.006761
231.450,-0.006764
231.500,-0.006767
231.550,-0.006770
231.600,-0.006773
231.650,-0.006776
231.700,-0.006779
231.750,-0.006782
231.800,-0.006785
231.850,-0.006788
231.900,-0.006791
231.950,-0.006794
232.000,-0.006797
232.050,-0.006800
232.100,-0.006803
232.150,-0.006806
232.200,-0.006809
232.250,-0.006812
232.300,-0.006815
232.350,-0.006818
232.400,-0.006821
232.450,-0.006824
232.500,-0.006827
232.550,-0.006830
232.600,-0.006833
232.650,-0.006836
232.700,-0.006839
232.750,-0.006842
232.800,-0.006845
232.850,-0.006848
232.900,-0.006851
232.950,-0.006854
233.000,-0.006857
233.050,-0.006860
233.100,-0.006863
233.150,-0.006866
233.200,-0.006869
233.250,-0.006872
233.300,-0.006875
233.350,-0.006879
233.400,-0.006882
233.450,-0.006885
233.500,-0.006888
233.550,-0.006891
233.600,-0.006894
233.650,-0.006897
233.700,-0.006900
233.750,-0.006903
233.800,-0.006906
233.850,-0.006909
233.900,-0.006912
233.950,-0.006915
234.000,-0.006918
234.050,-0.006921
234.100,-0.006925
234.150,-0.006928
234.200,-0.006931
234.250,-0.006934
234.300,-0.006937
234.350,-0.006940
234.400,-0.006943
234.450,-0.006946
234.500,-0.006949
234.550,-0.006952
234.600,-0.006956
234.650,-0.006959
234.700,-0.006962
234.750,-0.006965
234.800,-0.006968
234.850,-0.006971
234.900,-0.006974
234.950,-0.006977
235.000,-0.006981
235.050,-0.006984
235.100,-0.006987
235.150,-0.006990
235.200,-0.006993
235.250,-0.006996
235.300,-0.006999
235.350,-0.007003
235.400,-0.007006
235.450,-0.007009
235.500,-0.007012
235.550,-0.007015
235.600,-0.007018
235.650,-0.007021
235.700,-0.007025
235.750,-0.007028
235.800,-0.007031
235.850,-0.007034
235.900,-0.007037
235.950,-0.007040
236.000,-0.007043
236.050,-0.007047
236.100,-0.007050
236.150,-0.007053
236.200,-0.007056
236.250,-0.007059
236.300,-0.007062
236.350,-0.007066
236.400,-0.007069
236.450,-0.007072
236.500,-0.007075
236.550,-0.007078
236.600,-0.007081
236.650,-0.007085
236.700,-0.007088
236.750,-0.007091
236.800,-0.007094
236.850,-0.007097
236.900,-0.007100
236.950,-0.007104
237.000,-0.007107
237.050,-0.007110
237.100,-0.007113
237.150,-0.007116
237.200,-0.007120
237.250,-0.007123
237.300,-0.007126
237.350,-0.007129
237.400,-0.007132
237.450,-0.007136
237.500,-0.007139
237.550,-0.007142
237.600,-0.007145
237.650,-0.007149
237.700,-0.007152
237.750,-0.007155
237.800,-0.007158
237.850,-0.007161
237.900,-0.007165
237.950,-0.007168
238.000,-0.007171
238.050,-0.007174
238.100,-0.007177
238.150,-0.007181
238.200,-0.007184
238.250,-0.007187
238.300,-0.007190
238.350,-0.007194
238.400,-0.007197
238.450,-0.007200
238.500,-0.007203
238.550,-0.007207
238.600,-0.007210
238.650,-0.007213
238.700,-0.007216
238.750,-0.007220
238.800,-0.007223
238.850,-0.007226
238.900,-0.007229
238.950,-0.007233
239.000,-0.007236
239.050,-0.007239
239.100,-0.007243
239.150,-0.007246
239.200,-0.007249
239.250,-0.007252
239.300,-0.007256
239.350,-0.007259
239.400,-0.007262
239.450,-0.007266
239.500,-0.007269
239.550,-0.007272
239.600,-0.007276
239.650,-0.007279
239.700,-0.007282
239.750,-0.007286
239.800,-0.007289
239.850,-0.007292
239.900,-0.007296
239.950,-0.007299
240.000,-0.007302
240.050,-0.007305
240.100,-0.007309
240.150,-0.007312
240.200,-0.007316
240.250,-0.007319
240.300,-0.007322
240.350,-0.007326
240.400,-0.007329
240.450,-0.007332
240.500,-0.007336
240.550,-0.007339
240.600,-0.007342
240.650,-0.007346
240.700,-0.007349
240.750,-0.007352
240.800,-0.007356
240.850,-0.007359
240.900,-0.007363
240.950,-0.007366
241.000,-0.007369
241.050,-0.007373
241.100,-0.007376
241.150,-0.007380
241.200,-0.007383
241.250,-0.007386
241.300,-0.007390
241.350,-0.007393
241.400,-0.007397
241.450,-0.007400
241.500,-0.007403
241.550,-0.007407
241.600,-0.007410
241.650,-0.007414
241.700,-0.007417
241.750,-0.007420
241.800,-0.007424
241.850,-0.007427
241.900,-0.007431
241.950,-0.007434
242.000,-0.007438
242.050,-0.007441
242.100,-0.007444
242.150,-0.007448
242.200,-0.007451
242.250,-0.007455
242.300,-0.007458
242.350,-0.007462
242.400,-0.007465
242.450,-0.007469
242.500,-0.007472
242.550,-0.007476
242.600,-0.007479
242.650,-0.007482
242.700,-0.007486
242.750,-0.007489
242.800,-0.007493
242.850,-0.007496
242.900,-0.007500
242.950,-0.007503
243.000,-0.007507
243.050,-0.007510
243.100,-0.007514
243.150,-0.007517
243.200,-0.007521
243.250,-0.007524
243.300,-0.007528
243.350,-0.007531
243.400,-0.007535
243.450,-0.007538
243.500,-0.007542
243.550,-0.007545
243.600,-0.007549
243.650,-0.007552
243.700,-0.007556
243.750,-0.007559
243.800,-0.007563
243.850,-0.007566
243.900,-0.007570
243.950,-0.007574
244.000,-0.007577
244.050,-0.007581
244.100,-0.007584
244.150,-0.007588
244.200,-0.007591
244.250,-0.007595
244.300,-0.007598
244.350,-0.007602
244.400,-0.007606
244.450,-0.007609
244.500,-0.007613
244.550,-0.007616
244.600,-0.007620
244.650,-0.007624
244.700,-0.007627
244.750,-0.007631
244.800,-0.007634
244.850,-0.007638
244.900,-0.007642
244.950,-0.007645
245.000,-0.007649
245.050,-0.007653
245.100,-0.007656
245.150,-0.007660
245.200,-0.007663
245.250,-0.007667
245.300,-0.007671
245.350,-0.007674
245.400,-0.007678
245.450,-0.007682
245.500,-0.007685
245.550,-0.007689
245.600,-0.007693
245.650,-0.007696
245.700,-0.007700
245.750,-0.007704
245.800,-0.007707
245.850,-0.007711
245.900,-0.007715
245.950,-0.007719
246.000,-0.007722
246.050,-0.007726
246.100,-0.007730
246.150,-0.007733
246.200,-0.007737
246.250,-0.007741
246.300,-0.007745
246.350,-0.007748
246.400,-0.007752
246.450,-0.007756
246.500,-0.007759
246.550,-0.007763
246.600,-0.007767
246.650,-0.007771
246.700,-0.007774
246.750,-0.007778
246.800,-0.007782
246.850,-0.007786
246.900,-0.007789
246.950,-0.007793
247.000,-0.007797
247.050,-0.007801
247.100,-0.007804
247.150,-0.007808
247.200,-0.007812
247.250,-0.007816
247.300,-0.007820
247.350,-0.007823
247.400,-0.007827
247.450,-0.007831
247.500,-0.007835
247.550,-0.007838
247.600,-0.007842
247.650,-0.007846
247.700,-0.007850
247.750,-0.007854
247.800,-0.007858
247.850,-0.007861
247.900,-0.007865
247.950,-0.007869
248.000,-0.007873
248.050,-0.007877
248.100,-0.007880
248.150,-0.007884
248.200,-0.007888
248.250,-0.007892
248.300,-0.007896
248.350,-0.007900
248.400,-0.007904
248.450,-0.007907
248.500,-0.007911
248.550,-0.007915
248.600,-0.007919
248.650,-0.007923
248.700,-0.007927
248.750,-0.007931
248.800,-0.007935
248.850,-0.007938
248.900,-0.007942
248.950,-0.007946
249.000,-0.007950
249.050,-0.007954
249.100,-0.007958
249.150,-0.007962
249.200,-0.007966
249.250,-0.007970
249.300,-0.007974
249.350,-0.007978
249.400,-0.007981
249.450,-0.007985
249.500,-0.007989
249.550,-0.007993
249.600,-0.007997
249.650,-0.008001
249.700,-0.008005
249.750,-0.008009
249.800,-0.008013
249.850,-0.008017
249.900,-0.008021
249.950,-0.008025
250.000,-0.008029
250.050,-0.008033
250.100,-0.008037
250.150,-0.008041
250.200,-0.008045
250.250,-0.008049
250.300,-0.008053
250.350,-0.008057
250.400,-0.008061
250.450,-0.008065
250.500,-0.008069
250.550,-0.008073
250.600,-0.008077
250.650,-0.008081
250.700,-0.008085
250.750,-0.008089
250.800,-0.008093
250.850,-0.008097
250.900,-0.008101
250.950,-0.008105
251.000,-0.008109
251.050,-0.008113
251.100,-0.008117
251.150,-0.008121
251.200,-0.008125
251.250,-0.008129
251.300,-0.008133
251.350,-0.008137
251.400,-0.008141
251.450,-0.008145
251.500,-0.008149
251.550,-0.008154
251.600,-0.008158
251.650,-0.008162
251.700,-0.008166
251.750,-0.008170
251.800,-0.008174
251.850,-0.008178
251.900,-0.008182
251.950,-0.008186
252.000,-0.008190
252.050,-0.008194
252.100,-0.008199
252.150,-0.008203
252.200,-0.008207
252.250,-0.008211
252.300,-0.008215
252.350,-0.008219
252.400,-0.008223
252.450,-0.008228
252.500,-0.008232
252.550,-0.008236
252.600,-0.008240
252.650,-0.008244
252.700,-0.008248
252.750,-0.008253
252.800,-0.008257
252.850,-0.008261
252.900,-0.008265
252.950,-0.008269
253.000,-0.008273
253.050,-0.008278
253.100,-0.008282
253.150,-0.008286
253.200,-0.008290
253.250,-0.008294
253.300,-0.008299
253.350,-0.008303
253.400,-0.008307
253.450,-0.008311
253.500,-0.008316
253.550,-0.008320
253.600,-0.008324
253.650,-0.008328
253.700,-0.008332
253.750,-0.008337
253.800,-0.008341
253.850,-0.008345
253.900,-0.008350
253.950,-0.008354
254.000,-0.008358
254.050,-0.008362
254.100,-0.008367
254.150,-0.008371
254.200,-0.008375
254.250,-0.008379
254.300,-0.008384
254.350,-0.008388
254.400,-0.008392
254.450,-0.008397
254.500,-0.008401
254.550,-0.008405
254.600,-0.008410
254.650,-0.008414
254.700,-0.008418
254.750,-0.008422
254.800,-0.008427
254.850,-0.008431
254.900,-0.008435
254.950,-0.008440
255.000,-0.008444
255.050,-0.008448
255.100,-0.008453
255.150,-0.008457
255.200,-0.008462
255.250,-0.008466
255.300,-0.008470
255.350,-0.008475
255.400,-0.008479
255.450,-0.008483
255.500,-0.008488
255.550,-0.008492
255.600,-0.008497
255.650,-0.008501
255.700,-0.008505
255.750,-0.008510
255.800,-0.008514
255.850,-0.008519
255.900,-0.008523
255.950,-0.008527
256.000,-0.008532
256.050,-0.008536
256.100,-0.008541
256.150,-0.008545
256.200,-0.008550
256.250,-0.008554
256.300,-0.008558
256.350,-0.008563
256.400,-0.008567
256.450,-0.008572
256.500,-0.008576
256.550,-0.008581
256.600,-0.008585
256.650,-0.008590
256.700,-0.008594
256.750,-0.008599
256.800,-0.008603
256.850,-0.008608
256.900,-0.008612
256.950,-0.008617
257.000,-0.008621
257.050,-0.008626
257.100,-0.008630
257.150,-0.008635
257.200,-0.008639
257.250,-0.008644
257.300,-0.008648
257.350,-0.008653
257.400,-0.008658
257.450,-0.008662
257.500,-0.008667
257.550,-0.008671
257.600,-0.008676
257.650,-0.008680
257.700,-0.008685
257.750,-0.008690
257.800,-0.008694
257.850,-0.008699
257.900,-0.008703
257.950,-0.008708
258.000,-0.008712
258.050,-0.008717
258.100,-0.008722
258.150,-0.008726
258.200,-0.008731
258.250,-0.008736
258.300,-0.008740
258.350,-0.008745
258.400,-0.008749
258.450,-0.008754
258.500,-0.008759
258.550,-0.008763
258.600,-0.008768
258.650,-0.008773
258.700,-0.008777
258.750,-0.008782
258.800,-0.008787
258.850,-0.008791
258.900,-0.008796
258.950,-0.008801
259.000,-0.008805
259.050,-0.008810
259.100,-0.008815
259.150,-0.008819
259.200,-0.008824
259.250,-0.008829
259.300,-0.008833
259.350,-0.008838
259.400,-0.008843
259.450,-0.008848
259.500,-0.008852
259.550,-0.008857
259.600,-0.008862
259.650,-0.008866
259.700,-0.008871
259.750,-0.008876
259.800,-0.008881
259.850,-0.008885
259.900,-0.008890
259.950,-0.008895
260.000,-0.008900
260.050,-0.008905
260.100,-0.008909
260.150,-0.008914
260.200,-0.008919
260.250,-0.008924
260.300,-0.008928
260.350,-0.008933
260.400,-0.008938
260.450,-0.008943
260.500,-0.008948
260.550,-0.008952
260.600,-0.008957
260.650,-0.008962
260.700,-0.008967
260.750,-0.008972
260.800,-0.008976
260.850,-0.008981
260.900,-0.008986
260.950,-0.008991
261.000,-0.008996
261.050,-0.009001
261.100,-0.009005
261.150,-0.009010
261.200,-0.009015
261.250,-0.009020
261.300,-0.009025
261.350,-0.009030
261.400,-0.009035
261.450,-0.009040
261.500,-0.009044
261.550,-0.009049
261.600,-0.009054
261.650,-0.009059
261.700,-0.009064
261.750,-0.009069
261.800,-0.009074
261.850,-0.009079
261.900,-0.009084
261.950,-0.009089
262.000,-0.009093
262.050,-0.009098
262.100,-0.009103
262.150,-0.009108
262.200,-0.009113
262.250,-0.009118
262.300,-0.009123
262.350,-0.009128
262.400,-0.009133
262.450,-0.009138
262.500,-0.009143
262.550,-0.009148
262.600,-0.009153
262.650,-0.009158
262.700,-0.009163
262.750,-0.009168
262.800,-0.009173
262.850,-0.009178
262.900,-0.009183
262.950,-0.009188
263.000,-0.009193
263.050,-0.009198
263.100,-0.009203
263.150,-0.009208
263.200,-0.009213
263.250,-0.009218
263.300,-0.009223
263.350,-0.009228
263.400,-0.009233
263.450,-0.009238
263.500,-0.009243
263.550,-0.009248
263.600,-0.009254
263.650,-0.009259
263.700,-0.009264
263.750,-0.009269
263.800,-0.009274
263.850,-0.009279
263.900,-0.009284
263.950,-0.009289
264.000,-0.009294
264.050,-0.009299
264.100,-0.009304
264.150,-0.009310
264.200,-0.009315
264.250,-0.009320
264.300,-0.009325
264.350,-0.009330
264.400,-0.009335
264.450,-0.009340
264.500,-0.009345
264.550,-0.009351
264.600,-0.009356
264.650,-0.009361
264.700,-0.009366
264.750,-0.009371
264.800,-0.009376
264.850,-0.009382
264.900,-0.009387
264.950,-0.009392
265.000,-0.009397
265.050,-0.009402
265.100,-0.009408
265.150,-0.009413
265.200,-0.009418
265.250,-0.009423
265.300,-0.009428
265.350,-0.009434
265.400,-0.009439
265.450,-0.009444
265.500,-0.009449
265.550,-0.009455
265.600,-0.009460
265.650,-0.009465
265.700,-0.009470
265.750,-0.009475
265.800,-0.009481
265.850,-0.009486
265.900,-0.009491
265.950,-0.009497
266.000,-0.009502
266.050,-0.009507
266.100,-0.009512
266.150,-0.009518
266.200,-0.009523
266.250,-0.009528
266.300,-0.009534
266.350,-0.009539
266.400,-0.009544
266.450,-0.009550
266.500,-0.009555
266.550,-0.009560
266.600,-0.009566
266.650,-0.009571
266.700,-0.009576
266.750,-0.009582
266.800,-0.009587
266.850,-0.009592
266.900,-0.009598
266.950,-0.009603
267.000,-0.009609
267.050,-0.009614
267.100,-0.009619
267.150,-0.009625
267.200,-0.009630
267.250,-0.009636
267.300,-0.009641
267.350,-0.009646
267.400,-0.009652
267.450,-0.009657
267.500,-0.009663
267.550,-0.009668
267.600,-0.009673
267.650,-0.009679
267.700,-0.009684
267.750,-0.009690
267.800,-0.009695
267.850,-0.009701
267.900,-0.009706
267.950,-0.009712
268.000,-0.009717
268.050,-0.009723
268.100,-0.009728
268.150,-0.009733
268.200,-0.009739
268.250,-0.009744
268.300,-0.009750
268.350,-0.009755
268.400,-0.009761
268.450,-0.009766
268.500,-0.009772
268.550,-0.009777
268.600,-0.009783
268.650,-0.009789
268.700,-0.009794
268.750,-0.009800
268.800,-0.009805
268.850,-0.009811
268.900,-0.009816
268.950,-0.009822
269.000,-0.009827
269.050,-0.009833
269.100,-0.009839
269.150,-0.009844
269.200,-0.009850
269.250,-0.009855
269.300,-0.009861
269.350,-0.009866
269.400,-0.009872
269.450,-0.009878
269.500,-0.009883
269.550,-0.009889
269.600,-0.009894
269.650,-0.009900
269.700,-0.009906
269.750,-0.009911
269.800,-0.009917
269.850,-0.009923
269.900,-0.009928
269.950,-0.009934
270.000,-0.009940
270.050,-0.009945
270.100,-0.009951
270.150,-0.009957
270.200,-0.009962
270.250,-0.009968
270.300,-0.009974
270.350,-0.009979
270.400,-0.009985
270.450,-0.009991
270.500,-0.009996
270.550,-0.010002
270.600,-0.010008
270.650,-0.010014
270.700,-0.010019
270.750,-0.010025
270.800,-0.010031
270.850,-0.010036
270.900,-0.010042
270.950,-0.010048
271.000,-0.010054
271.050,-0.010059
271.100,-0.010065
271.150,-0.010071
271.200,-0.010077
271.250,-0.010082
271.300,-0.010088
271.350,-0.010094
271.400,-0.010100
271.450,-0.010106
271.500,-0.010111
271.550,-0.010117
271.600,-0.010123
271.650,-0.010129
271.700,-0.010135
271.750,-0.010140
271.800,-0.010146
271.850,-0.010152
271.900,-0.010158
271.950,-0.010164
272.000,-0.010170
272.050,-0.010175
272.100,-0.010181
272.150,-0.010187
272.200,-0.010193
272.250,-0.010199
272.300,-0.010205
272.350,-0.010210
272.400,-0.010216
272.450,-0.010222
272.500,-0.010228
272.550,-0.010234
272.600,-0.010240
272.650,-0.010246
272.700,-0.010252
272.750,-0.010258
272.800,-0.010264
272.850,-0.010269
272.900,-0.010275
272.950,-0.010281
273.000,-0.010287
273.050,-0.010293
273.100,-0.010299
273.150,-0.010305
273.200,-0.010311
273.250,-0.010317
273.300,-0.010323
273.350,-0.010329
273.400,-0.010335
273.450,-0.010341
273.500,-0.010347
273.550,-0.010353
273.600,-0.010359
273.650,-0.010365
273.700,-0.010371
273.750,-0.010377
273.800,-0.010383
273.850,-0.010389
273.900,-0.010395
273.950,-0.010401
274.000,-0.010407
274.050,-0.010413
274.100,-0.010419
274.150,-0.010425
274.200,-0.010431
274.250,-0.010437
274.300,-0.010443
274.350,-0.010449
274.400,-0.010455
274.450,-0.010461
274.500,-0.010467
274.550,-0.010473
274.600,-0.010480
274.650,-0.010486
274.700,-0.010492
274.750,-0.010498
274.800,-0.010504
274.850,-0.010510
274.900,-0.010516
274.950,-0.010522
275.000,-0.010528
275.050,-0.010534
275.100,-0.010541
275.150,-0.010547
275.200,-0.010553
275.250,-0.010559
275.300,-0.010565
275.350,-0.010571
275.400,-0.010577
275.450,-0.010584
275.500,-0.010590
275.550,-0.010596
275.600,-0.010602
275.650,-0.010608
275.700,-0.010614
275.750,-0.010621
275.800,-0.010627
275.850,-0.010633
275.900,-0.010639
275.950,-0.010645
276.000,-0.010652
276.050,-0.010658
276.100,-0.010664
276.150,-0.010670
276.200,-0.010676
276.250,-0.010683
276.300,-0.010689
276.350,-0.010695
276.400,-0.010701
276.450,-0.010708
276.500,-0.010714
276.550,-0.010720
276.600,-0.010726
276.650,-0.010733
276.700,-0.010739
276.750,-0.010745
276.800,-0.010751
276.850,-0.010758
276.900,-0.010764
276.950,-0.010770
277.000,-0.010776
277.050,-0.010783
277.100,-0.010789
277.150,-0.010795
277.200,-0.010802
277.250,-0.010808
277.300,-0.010814
277.350,-0.010821
277.400,-0.010827
277.450,-0.010833
277.500,-0.010840
277.550,-0.010846
277.600,-0.010852
277.650,-0.010859
277.700,-0.010865
277.750,-0.010871
277.800,-0.010878
277.850,-0.010884
277.900,-0.010890
277.950,-0.010897
278.000,-0.010903
278.050,-0.010910
278.100,-0.010916
278.150,-0.010922
278.200,-0.010929
278.250,-0.010935
278.300,-0.010942
278.350,-0.010948
278.400,-0.010954
278.450,-0.010961
278.500,-0.010967
278.550,-0.010974
278.600,-0.010980
278.650,-0.010986
278.700,-0.010993
278.750,-0.010999
278.800,-0.011006
278.850,-0.011012
278.900,-0.011019
278.950,-0.011025
279.000,-0.011032
279.050,-0.011038
279.100,-0.011045
279.150,-0.011051
279.200,-0.011058
279.250,-0.011064
279.300,-0.011070
279.350,-0.011077
279.400,-0.011083
279.450,-0.011090
279.500,-0.011096
279.550,-0.011103
279.600,-0.011109
279.650,-0.011116
279.700,-0.011123
279.750,-0.011129
279.800,-0.011136
279.850,-0.011142
279.900,-0.011149
279.950,-0.011155
280.000,-0.011162
280.050,-0.011168
280.100,-0.011175
280.150,-0.011181
280.200,-0.011188
280.250,-0.011194
280.300,-0.011201
280.350,-0.011208
280.400,-0.011214
280.450,-0.011221
280.500,-0.011227
280.550,-0.011234
280.600,-0.011240
280.650,-0.011247
280.700,-0.011254
280.750,-0.011260
280.800,-0.011267
280.850,-0.011273
280.900,-0.011280
280.950,-0.011287
281.000,-0.011293
281.050,-0.011300
281.100,-0.011306
281.150,-0.011313
281.200,-0.011320
281.250,-0.011326
281.300,-0.011333
281.350,-0.011340
281.400,-0.011346
281.450,-0.011353
281.500,-0.011359
281.550,-0.011366
281.600,-0.011373
281.650,-0.011379
281.700,-0.011386
281.750,-0.011393
281.800,-0.011399
281.850,-0.011406
281.900,-0.011413
281.950,-0.011419
282.000,-0.011426
282.050,-0.011433
282.100,-0.011440
282.150,-0.011446
282.200,-0.011453
282.250,-0.011460
282.300,-0.011466
282.350,-0.011473
282.400,-0.011480
282.450,-0.011486
282.500,-0.011493
282.550,-0.011500
282.600,-0.011507
282.650,-0.011513
282.700,-0.011520
282.750,-0.011527
282.800,-0.011533
282.850,-0.011540
282.900,-0.011547
282.950,-0.011554
283.000,-0.011560
283.050,-0.011567
283.100,-0.011574
283.150,-0.011581
283.200,-0.011587
283.250,-0.011594
283.300,-0.011601
283.350,-0.011608
283.400,-0.011614
283.450,-0.011621
283.500,-0.011628
283.550,-0.011635
283.600,-0.011641
283.650,-0.011648
283.700,-0.011655
283.750,-0.011662
283.800,-0.011669
283.850,-0.011675
283.900,-0.011682
283.950,-0.011689
284.000,-0.011696
284.050,-0.011703
284.100,-0.011709
284.150,-0.011716
284.200,-0.011723
284.250,-0.011730
284.300,-0.011737
284.350,-0.011744
284.400,-0.011750
284.450,-0.011757
284.500,-0.011764
284.550,-0.011771
284.600,-0.011778
284.650,-0.011785
284.700,-0.011792
284.750,-0.011798
284.800,-0.011805
284.850,-0.011812
284.900,-0.011819
284.950,-0.011826
285.000,-0.011833
285.050,-0.011840
285.100,-0.011847
285.150,-0.011853
285.200,-0.011860
285.250,-0.011867
285.300,-0.011874
285.350,-0.011881
285.400,-0.011888
285.450,-0.011895
285.500,-0.011902
285.550,-0.011909
285.600,-0.011915
285.650,-0.011922
285.700,-0.011929
285.750,-0.011936
285.800,-0.011943
285.850,-0.011950
285.900,-0.011957
285.950,-0.011964
286.000,-0.011971
286.050,-0.011978
286.100,-0.011985
286.150,-0.011992
286.200,-0.011998
286.250,-0.012005
286.300,-0.012012
286.350,-0.012019
286.400,-0.012026
286.450,-0.012033
286.500,-0.012040
286.550,-0.012047
286.600,-0.012054
286.650,-0.012061
286.700,-0.012068
286.750,-0.012075
286.800,-0.012082
286.850,-0.012089
286.900,-0.012096
286.950,-0.012103
287.000,-0.012110
287.050,-0.012116
287.100,-0.012123
287.150,-0.012130
287.200,-0.012137
287.250,-0.012144
287.300,-0.012151
287.350,-0.012158
287.400,-0.012165
287.450,-0.012172
287.500,-0.012179
287.550,-0.012186
287.600,-0.012193
287.650,-0.012200
287.700,-0.012207
287.750,-0.012214
287.800,-0.012221
287.850,-0.012228
287.900,-0.012235
287.950,-0.012242
288.000,-0.012249
288.050,-0.012256
288.100,-0.012263
288.150,-0.012270
288.200,-0.012277
288.250,-0.012284
288.300,-0.012291
288.350,-0.012298
288.400,-0.012305
288.450,-0.012312
288.500,-0.012319
288.550,-0.012326
288.600,-0.012333
288.650,-0.012340
288.700,-0.012347
288.750,-0.012354
288.800,-0.012361
288.850,-0.012368
288.900,-0.012375
288.950,-0.012382
289.000,-0.012389
289.050,-0.012396
289.100,-0.012403
289.150,-0.012410
289.200,-0.012417
289.250,-0.012424
289.300,-0.012431
289.350,-0.012438
289.400,-0.012445
289.450,-0.012452
289.500,-0.012459
289.550,-0.012466
289.600,-0.012473
289.650,-0.012480
289.700,-0.012487
289.750,-0.012494
289.800,-0.012501
289.850,-0.012508
289.900,-0.012515
289.950,-0.012522
290.000,-0.012529
290.050,-0.012536
290.100,-0.012543
290.150,-0.012550
290.200,-0.012557
290.250,-0.012564
290.300,-0.012571
290.350,-0.012578
290.400,-0.012585
290.450,-0.012592
290.500,-0.012599
290.550,-0.012606
290.600,-0.012613
290.650,-0.012620
290.700,-0.012627
290.750,-0.012634
290.800,-0.012641
290.850,-0.012648
290.900,-0.012655
290.950,-0.012662
291.000,-0.012669
291.050,-0.012675
291.100,-0.012682
291.150,-0.012689
291.200,-0.012696
291.250,-0.012703
291.300,-0.012710
291.350,-0.012717
291.400,-0.012724
291.450,-0.012731
291.500,-0.012738
291.550,-0.012745
291.600,-0.012752
291.650,-0.012759
291.700,-0.012766
291.750,-0.012773
291.800,-0.012780
291.850,-0.012787
291.900,-0.012794
291.950,-0.012801
292.000,-0.012808
292.050,-0.012815
292.100,-0.012822
292.150,-0.012829
292.200,-0.012836
292.250,-0.012843
292.300,-0.012850
292.350,-0.012857
292.400,-0.012863
292.450,-0.012870
292.500,-0.012877
292.550,-0.012884
292.600,-0.012891
292.650,-0.012898
292.700,-0.012905
292.750,-0.012912
292.800,-0.012919
292.850,-0.012926
292.900,-0.012933
292.950,-0.012940
293.000,-0.012947
293.050,-0.012953
293.100,-0.012960
293.150,-0.012967
293.200,-0.012974
293.250,-0.012981
293.300,-0.012988
293.350,-0.012995
293.400,-0.013002
293.450,-0.013009
293.500,-0.013015
293.550,-0.013022
293.600,-0.013029
293.650,-0.013036
293.700,-0.013043
293.750,-0.013050
293.800,-0.013057
293.850,-0.013063
293.900,-0.013070
293.950,-0.013077
294.000,-0.013084
294.050,-0.013091
294.100,-0.013098
294.150,-0.013104
294.200,-0.013111
294.250,-0.013118
294.300,-0.013125
294.350,-0.013132
294.400,-0.013138
294.450,-0.013145
294.500,-0.013152
294.550,-0.013159
294.600,-0.013166
294.650,-0.013172
294.700,-0.013179
294.750,-0.013186
294.800,-0.013193
294.850,-0.013200
294.900,-0.013206
294.950,-0.013213
295.000,-0.013220
295.050,-0.013227
295.100,-0.013233
295.150,-0.013240
295.200,-0.013247
295.250,-0.013253
295.300,-0.013260
295.350,-0.013267
295.400,-0.013274
295.450,-0.013280
295.500,-0.013287
295.550,-0.013294
295.600,-0.013300
295.650,-0.013307
295.700,-0.013314
295.750,-0.013320
295.800,-0.013327
295.850,-0.013334
295.900,-0.013340
295.950,-0.013347
296.000,-0.013354
296.050,-0.013360
296.100,-0.013367
296.150,-0.013374
296.200,-0.013380
296.250,-0.013387
296.300,-0.013393
296.350,-0.013400
296.400,-0.013407
296.450,-0.013413
296.500,-0.013420
296.550,-0.013426
296.600,-0.013433
296.650,-0.013439
296.700,-0.013446
296.750,-0.013453
296.800,-0.013459
296.850,-0.013466
296.900,-0.013472
296.950,-0.013479
297.000,-0.013485
297.050,-0.013492
297.100,-0.013498
297.150,-0.013505
297.200,-0.013511
297.250,-0.013518
297.300,-0.013524
297.350,-0.013530
297.400,-0.013537
297.450,-0.013543
297.500,-0.013550
297.550,-0.013556
297.600,-0.013563
297.650,-0.013569
297.700,-0.013575
297.750,-0.013582
297.800,-0.013588
297.850,-0.013594
297.900,-0.013601
297.950,-0.013607
298.000,-0.013613
298.050,-0.013620
298.100,-0.013626
298.150,-0.013632
298.200,-0.013639
298.250,-0.013645
298.300,-0.013651
298.350,-0.013657
298.400,-0.013664
298.450,-0.013670
298.500,-0.013676
298.550,-0.013682
298.600,-0.013689
298.650,-0.013695
298.700,-0.013701
298.750,-0.013707
298.800,-0.013713
298.850,-0.013719
298.900,-0.013726
298.950,-0.013732
299.000,-0.013738
299.050,-0.013744
299.100,-0.013750
299.150,-0.013756
299.200,-0.013762
299.250,-0.013768
299.300,-0.013774
299.350,-0.013780
299.400,-0.013786
299.450,-0.013792
299.500,-0.013798
299.550,-0.013804
299.600,-0.013810
299.650,-0.013816
299.700,-0.013822
299.750,-0.013828
299.800,-0.013834
299.850,-0.013840
299.900,-0.013846
299.950,-0.013852
