t_ms,ecg_mV
0.000,-0.006023
0.050,-0.005876
0.100,-0.005730
0.150,-0.005585
0.200,-0.005440
0.250,-0.005296
0.300,-0.005153
0.350,-0.005009
0.400,-0.004866
0.450,-0.004722
0.500,-0.004576
0.550,-0.004420
0.600,-0.004224
0.650,-0.003862
0.700,-0.002878
0.750,-0.002006
0.800,-0.001656
0.850,-0.001450
0.900,-0.001290
0.950,-0.001146
1.000,-0.001104
1.050,-0.001060
1.100,-0.001017
1.150,-0.000973
1.200,-0.000931
1.250,-0.000888
1.300,-0.000847
1.350,-0.000806
1.400,-0.000766
1.450,-0.000726
1.500,-0.000687
1.550,-0.000648
1.600,-0.000611
1.650,-0.000573
1.700,-0.000536
1.750,-0.000500
1.800,-0.000464
1.850,-0.000429
1.900,-0.000394
1.950,-0.000359
2.000,-0.000324
2.050,-0.000287
2.100,-0.000241
2.150,-0.000195
2.200,-0.000158
2.250,-0.000124
2.300,-0.000092
2.350,-0.000060
2.400,-0.000029
2.450,0.000001
2.500,0.000030
2.550,0.000059
2.600,0.000088
2.650,0.000116
2.700,0.000144
2.750,0.000172
2.800,0.000199
2.850,0.000226
2.900,0.000252
2.950,0.000279
3.000,0.000304
3.050,0.000330
3.100,0.000355
3.150,0.000380
3.200,0.000405
3.250,0.000429
3.300,0.000454
3.350,0.000478
3.400,0.000502
3.450,0.000527
3.500,0.000553
3.550,0.000588
3.600,0.000625
3.650,0.000653
3.700,0.000677
3.750,0.000700
3.800,0.000722
3.850,0.000743
3.900,0.000764
3.950,0.000784
4.000,0.000804
4.050,0.000824
4.100,0.000844
4.150,0.000863
4.200,0.000882
4.250,0.000901
4.300,0.000919
4.350,0.000937
4.400,0.000955
4.450,0.000973
4.500,0.000991
4.550,0.001008
4.600,0.001026
4.650,0.001043
4.700,0.001060
4.750,0.001076
4.800,0.001093
4.850,0.001110
4.900,0.001127
4.950,0.001146
5.000,0.001172
5.050,0.001204
5.100,0.001226
5.150,0.001244
5.200,0.001261
5.250,0.001276
5.300,0.001291
5.350,0.001306
5.400,0.001320
5.450,0.001334
5.500,0.001347
5.550,0.001361
5.600,0.001374
5.650,0.001387
5.700,0.001400
5.750,0.001412
5.800,0.001425
5.850,0.001437
5.900,0.001450
5.950,0.001462
6.000,0.001474
6.050,0.001485
6.100,0.001497
6.150,0.001509
6.200,0.001520
6.250,0.001532
6.300,0.001544
6.350,0.001556
6.400,0.001570
6.450,0.001589
6.500,0.001617
6.550,0.001637
6.600,0.001650
6.650,0.001662
6.700,0.001673
6.750,0.001684
6.800,0.001694
6.850,0.001704
6.900,0.001713
6.950,0.001723
7.000,0.001732
7.050,0.001741
7.100,0.001750
7.150,0.001759
7.200,0.001768
7.250,0.001776
7.300,0.001785
7.350,0.001793
7.400,0.001802
7.450,0.001810
7.500,0.001818
7.550,0.001826
7.600,0.001834
7.650,0.001842
7.700,0.001850
7.750,0.001859
7.800,0.001868
7.850,0.001878
7.900,0.001893
7.950,0.001919
8.000,0.001936
8.050,0.001947
8.100,0.001956
8.150,0.001964
8.200,0.001972
8.250,0.001979
8.300,0.001986
8.350,0.001993
8.400,0.001999
8.450,0.002006
8.500,0.002012
8.550,0.002018
8.600,0.002024
8.650,0.002031
8.700,0.002037
8.750,0.002043
8.800,0.002049
8.850,0.002054
8.900,0.002060
8.950,0.002066
9.000,0.002072
9.050,0.002078
9.100,0.002083
9.150,0.002089
9.200,0.002095
9.250,0.002102
9.300,0.002110
9.350,0.002122
9.400,0.002145
9.450,0.002162
9.500,0.002172
9.550,0.002179
9.600,0.002185
9.650,0.002191
9.700,0.002196
9.750,0.002201
9.800,0.002206
9.850,0.002211
9.900,0.002216
9.950,0.002220
10.000,0.002225
10.050,0.002229
10.100,0.002234
10.150,0.002238
10.200,0.002242
10.250,0.002247
10.300,0.002251
10.350,0.002255
10.400,0.002259
10.450,0.002264
10.500,0.002268
10.550,0.002272
10.600,0.002277
10.650,0.002281
10.700,0.002286
10.750,0.002292
10.800,0.002301
10.850,0.002321
10.900,0.002340
10.950,0.002349
11.000,0.002356
11.050,0.002361
11.100,0.002365
11.150,0.002370
11.200,0.002373
11.250,0.002377
11.300,0.002381
11.350,0.002384
11.400,0.002388
11.450,0.002391
11.500,0.002394
11.550,0.002397
11.600,0.002401
11.650,0.002404
11.700,0.002407
11.750,0.002410
11.800,0.002413
11.850,0.002416
11.900,0.002420
11.950,0.002423
12.000,0.002426
12.050,0.002429
12.100,0.002433
12.150,0.002436
12.200,0.002441
12.250,0.002447
12.300,0.002461
12.350,0.002483
12.400,0.002495
12.450,0.002502
12.500,0.002506
12.550,0.002510
12.600,0.002513
12.650,0.002516
12.700,0.002519
12.750,0.002522
12.800,0.002525
12.850,0.002527
12.900,0.002530
12.950,0.002532
13.000,0.002535
13.050,0.002537
13.100,0.002539
13.150,0.002542
13.200,0.002544
13.250,0.002547
13.300,0.002549
13.350,0.002551
13.400,0.002554
13.450,0.002556
13.500,0.002559
13.550,0.002561
13.600,0.002564
13.650,0.002568
13.700,0.002573
13.750,0.002584
13.800,0.002606
13.850,0.002620
13.900,0.002626
13.950,0.002630
14.000,0.002634
14.050,0.002637
14.100,0.002639
14.150,0.002641
14.200,0.002643
14.250,0.002645
14.300,0.002647
14.350,0.002649
14.400,0.002651
14.450,0.002653
14.500,0.002655
14.550,0.002656
14.600,0.002658
14.650,0.002660
14.700,0.002662
14.750,0.002663
14.800,0.002665
14.850,0.002667
14.900,0.002669
14.950,0.002671
15.000,0.002673
15.050,0.002676
15.100,0.002678
15.150,0.002683
15.200,0.002692
15.250,0.002713
15.300,0.002729
15.350,0.002735
15.400,0.002739
15.450,0.002742
15.500,0.002745
15.550,0.002747
15.600,0.002748
15.650,0.002750
15.700,0.002752
15.750,0.002753
15.800,0.002755
15.850,0.002756
15.900,0.002757
15.950,0.002759
16.000,0.002760
16.050,0.002761
16.100,0.002763
16.150,0.002764
16.200,0.002765
16.250,0.002767
16.300,0.002768
16.350,0.002770
16.400,0.002771
16.450,0.002773
16.500,0.002775
16.550,0.002777
16.600,0.002781
16.650,0.002788
16.700,0.002806
16.750,0.002825
16.800,0.002833
16.850,0.002837
16.900,0.002840
16.950,0.002842
17.000,0.002844
17.050,0.002846
17.100,0.002847
17.150,0.002848
17.200,0.002849
17.250,0.002850
17.300,0.002852
17.350,0.002853
17.400,0.002854
17.450,0.002855
17.500,0.002856
17.550,0.002857
17.600,0.002858
17.650,0.002859
17.700,0.002860
17.750,0.002861
17.800,0.002862
17.850,0.002863
17.900,0.002865
17.950,0.002866
18.000,0.002868
18.050,0.002871
18.100,0.002876
18.150,0.002888
18.200,0.002911
18.250,0.002923
18.300,0.002928
18.350,0.002931
18.400,0.002933
18.450,0.002935
18.500,0.002936
18.550,0.002937
18.600,0.002938
18.650,0.002939
18.700,0.002940
18.750,0.002941
18.800,0.002942
18.850,0.002943
18.900,0.002944
18.950,0.002944
19.000,0.002945
19.050,0.002946
19.100,0.002947
19.150,0.002948
19.200,0.002948
19.250,0.002949
19.300,0.002950
19.350,0.002952
19.400,0.002953
19.450,0.002955
19.500,0.002957
19.550,0.002961
19.600,0.002972
19.650,0.002995
19.700,0.003008
19.750,0.003014
19.800,0.003017
19.850,0.003019
19.900,0.003021
19.950,0.003022
20.000,0.003023
20.050,0.003024
20.100,0.003025
20.150,0.003026
20.200,0.003027
20.250,0.003027
20.300,0.003028
20.350,0.003028
20.400,0.003029
20.450,0.003030
20.500,0.003030
20.550,0.003031
20.600,0.003032
20.650,0.003032
20.700,0.003033
20.750,0.003034
20.800,0.003035
20.850,0.003036
20.900,0.003038
20.950,0.003040
21.000,0.003043
21.050,0.003052
21.100,0.003075
21.150,0.003091
21.200,0.003097
21.250,0.003101
21.300,0.003103
21.350,0.003105
21.400,0.003106
21.450,0.003107
21.500,0.003108
21.550,0.003108
21.600,0.003109
21.650,0.003109
21.700,0.003110
21.750,0.003111
21.800,0.003111
21.850,0.003112
21.900,0.003112
21.950,0.003113
22.000,0.003113
22.050,0.003114
22.100,0.003114
22.150,0.003115
22.200,0.003116
22.250,0.003116
22.300,0.003117
22.350,0.003119
22.400,0.003120
22.450,0.003123
22.500,0.003130
22.550,0.003149
22.600,0.003170
22.650,0.003178
22.700,0.003182
22.750,0.003185
22.800,0.003186
22.850,0.003188
22.900,0.003188
22.950,0.003189
23.000,0.003190
23.050,0.003190
23.100,0.003191
23.150,0.003191
23.200,0.003192
23.250,0.003192
23.300,0.003193
23.350,0.003193
23.400,0.003193
23.450,0.003194
23.500,0.003194
23.550,0.003195
23.600,0.003195
23.650,0.003196
23.700,0.003197
23.750,0.003198
23.800,0.003199
23.850,0.003200
23.900,0.003202
23.950,0.003207
24.000,0.003220
24.050,0.003245
24.100,0.003258
24.150,0.003263
24.200,0.003266
24.250,0.003268
24.300,0.003269
24.350,0.003270
24.400,0.003271
24.450,0.003272
24.500,0.003272
24.550,0.003273
24.600,0.003273
24.650,0.003273
24.700,0.003274
24.750,0.003274
24.800,0.003274
24.850,0.003275
24.900,0.003275
24.950,0.003276
25.000,0.003276
25.050,0.003277
25.100,0.003277
25.150,0.003278
25.200,0.003278
25.250,0.003279
25.300,0.003281
25.350,0.003283
25.400,0.003287
25.450,0.003298
25.500,0.003324
25.550,0.003339
25.600,0.003345
25.650,0.003348
25.700,0.003350
25.750,0.003351
25.800,0.003352
25.850,0.003353
25.900,0.003354
25.950,0.003354
26.000,0.003355
26.050,0.003355
26.100,0.003355
26.150,0.003356
26.200,0.003356
26.250,0.003356
26.300,0.003356
26.350,0.003357
26.400,0.003357
26.450,0.003357
26.500,0.003358
26.550,0.003358
26.600,0.003359
26.650,0.003360
26.700,0.003360
26.750,0.003362
26.800,0.003364
26.850,0.003367
26.900,0.003377
26.950,0.003401
27.000,0.003420
27.050,0.003427
27.100,0.003430
27.150,0.003432
27.200,0.003434
27.250,0.003435
27.300,0.003435
27.350,0.003436
27.400,0.003436
27.450,0.003437
27.500,0.003437
27.550,0.003437
27.600,0.003438
27.650,0.003438
27.700,0.003438
27.750,0.003438
27.800,0.003439
27.850,0.003439
27.900,0.003439
27.950,0.003440
28.000,0.003440
28.050,0.003441
28.100,0.003441
28.150,0.003442
28.200,0.003443
28.250,0.003445
28.300,0.003448
28.350,0.003455
28.400,0.003474
28.450,0.003498
28.500,0.003508
28.550,0.003513
28.600,0.003515
28.650,0.003517
28.700,0.003518
28.750,0.003519
28.800,0.003519
28.850,0.003520
28.900,0.003520
28.950,0.003521
29.000,0.003521
29.050,0.003521
29.100,0.003521
29.150,0.003521
29.200,0.003522
29.250,0.003522
29.300,0.003522
29.350,0.003522
29.400,0.003523
29.450,0.003523
29.500,0.003524
29.550,0.003524
29.600,0.003525
29.650,0.003526
29.700,0.003527
29.750,0.003530
29.800,0.003535
29.850,0.003548
29.900,0.003576
29.950,0.003591
30.000,0.003597
30.050,0.003600
30.100,0.003602
30.150,0.003603
30.200,0.003604
30.250,0.003605
30.300,0.003605
30.350,0.003606
30.400,0.003606
30.450,0.003606
30.500,0.003606
30.550,0.003607
30.600,0.003607
30.650,0.003607
30.700,0.003607
30.750,0.003608
30.800,0.003608
30.850,0.003608
30.900,0.003608
30.950,0.003609
31.000,0.003609
31.050,0.003610
31.100,0.003611
31.150,0.003612
31.200,0.003615
31.250,0.003619
31.300,0.003631
31.350,0.003659
31.400,0.003677
31.450,0.003683
31.500,0.003687
31.550,0.003689
31.600,0.003690
31.650,0.003691
31.700,0.003692
31.750,0.003692
31.800,0.003693
31.850,0.003693
31.900,0.003693
31.950,0.003694
32.000,0.003694
32.050,0.003694
32.100,0.003694
32.150,0.003694
32.200,0.003694
32.250,0.003695
32.300,0.003695
32.350,0.003695
32.400,0.003696
32.450,0.003696
32.500,0.003697
32.550,0.003698
32.600,0.003699
32.650,0.003701
32.700,0.003705
32.750,0.003715
32.800,0.003742
32.850,0.003763
32.900,0.003771
32.950,0.003775
33.000,0.003777
33.050,0.003779
33.100,0.003780
33.150,0.003781
33.200,0.003781
33.250,0.003782
33.300,0.003782
33.350,0.003782
33.400,0.003782
33.450,0.003782
33.500,0.003783
33.550,0.003783
33.600,0.003783
33.650,0.003783
33.700,0.003783
33.750,0.003783
33.800,0.003784
33.850,0.003784
33.900,0.003785
33.950,0.003785
34.000,0.003786
34.050,0.003787
34.100,0.003789
34.150,0.003792
34.200,0.003799
34.250,0.003820
34.300,0.003848
34.350,0.003860
34.400,0.003865
34.450,0.003868
34.500,0.003869
34.550,0.003871
34.600,0.003871
34.650,0.003872
34.700,0.003872
34.750,0.003873
34.800,0.003873
34.850,0.003873
34.900,0.003873
34.950,0.003873
35.000,0.003873
35.050,0.003874
35.100,0.003874
35.150,0.003874
35.200,0.003874
35.250,0.003874
35.300,0.003875
35.350,0.003875
35.400,0.003876
35.450,0.003876
35.500,0.003877
35.550,0.003879
35.600,0.003881
35.650,0.003887
35.700,0.003902
35.750,0.003933
35.800,0.003950
35.850,0.003957
35.900,0.003960
35.950,0.003962
36.000,0.003964
36.050,0.003965
36.100,0.003965
36.150,0.003966
36.200,0.003966
36.250,0.003966
36.300,0.003966
36.350,0.003967
36.400,0.003967
36.450,0.003967
36.500,0.003967
36.550,0.003967
36.600,0.003967
36.650,0.003967
36.700,0.003968
36.750,0.003968
36.800,0.003968
36.850,0.003969
36.900,0.003969
36.950,0.003970
37.000,0.003972
37.050,0.003974
37.100,0.003979
37.150,0.003992
37.200,0.004024
37.250,0.004044
37.300,0.004052
37.350,0.004056
37.400,0.004058
37.450,0.004059
37.500,0.004060
37.550,0.004061
37.600,0.004061
37.650,0.004062
37.700,0.004062
37.750,0.004062
37.800,0.004062
37.850,0.004062
37.900,0.004062
37.950,0.004062
38.000,0.004063
38.050,0.004063
38.100,0.004063
38.150,0.004063
38.200,0.004063
38.250,0.004064
38.300,0.004064
38.350,0.004065
38.400,0.004065
38.450,0.004067
38.500,0.004069
38.550,0.004073
38.600,0.004084
38.650,0.004114
38.700,0.004139
38.750,0.004148
38.800,0.004153
38.850,0.004155
38.900,0.004157
38.950,0.004158
39.000,0.004159
39.050,0.004159
39.100,0.004159
39.150,0.004160
39.200,0.004160
39.250,0.004160
39.300,0.004160
39.350,0.004160
39.400,0.004160
39.450,0.004160
39.500,0.004160
39.550,0.004160
39.600,0.004161
39.650,0.004161
39.700,0.004161
39.750,0.004161
39.800,0.004162
39.850,0.004163
39.900,0.004164
39.950,0.004166
40.000,0.004169
40.050,0.004177
40.100,0.004199
40.150,0.004231
40.200,0.004246
40.250,0.004252
40.300,0.004255
40.350,0.004257
40.400,0.004258
40.450,0.004259
40.500,0.004260
40.550,0.004260
40.600,0.004260
40.650,0.004260
40.700,0.004261
40.750,0.004261
40.800,0.004261
40.850,0.004261
40.900,0.004261
40.950,0.004261
41.000,0.004261
41.050,0.004261
41.100,0.004261
41.150,0.004262
41.200,0.004262
41.250,0.004262
41.300,0.004263
41.350,0.004264
41.400,0.004266
41.450,0.004268
41.500,0.004275
41.550,0.004292
41.600,0.004327
41.650,0.004347
41.700,0.004354
41.750,0.004358
41.800,0.004360
41.850,0.004362
41.900,0.004363
41.950,0.004363
42.000,0.004364
42.050,0.004364
42.100,0.004364
42.150,0.004364
42.200,0.004364
42.250,0.004364
42.300,0.004364
42.350,0.004365
42.400,0.004365
42.450,0.004365
42.500,0.004365
42.550,0.004365
42.600,0.004365
42.650,0.004365
42.700,0.004366
42.750,0.004367
42.800,0.004368
42.850,0.004369
42.900,0.004372
42.950,0.004377
43.000,0.004392
43.050,0.004428
43.100,0.004451
43.150,0.004460
43.200,0.004464
43.250,0.004467
43.300,0.004468
43.350,0.004469
43.400,0.004470
43.450,0.004470
43.500,0.004471
43.550,0.004471
43.600,0.004471
43.650,0.004471
43.700,0.004471
43.750,0.004471
43.800,0.004471
43.850,0.004471
43.900,0.004471
43.950,0.004471
44.000,0.004471
44.050,0.004471
44.100,0.004472
44.150,0.004472
44.200,0.004473
44.250,0.004474
44.300,0.004475
44.350,0.004477
44.400,0.004482
44.450,0.004494
44.500,0.004528
44.550,0.004556
44.600,0.004567
44.650,0.004572
44.700,0.004575
44.750,0.004577
44.800,0.004578
44.850,0.004579
44.900,0.004579
44.950,0.004580
45.000,0.004580
45.050,0.004580
45.100,0.004580
45.150,0.004580
45.200,0.004580
45.250,0.004580
45.300,0.004580
45.350,0.004580
45.400,0.004580
45.450,0.004580
45.500,0.004580
45.550,0.004581
45.600,0.004581
45.650,0.004581
45.700,0.004582
45.750,0.004583
45.800,0.004585
45.850,0.004589
45.900,0.004597
45.950,0.004622
46.000,0.004660
46.050,0.004676
46.100,0.004683
46.150,0.004687
46.200,0.004689
46.250,0.004691
46.300,0.004691
46.350,0.004692
46.400,0.004692
46.450,0.004693
46.500,0.004693
46.550,0.004693
46.600,0.004693
46.650,0.004693
46.700,0.004693
46.750,0.004693
46.800,0.004693
46.850,0.004693
46.900,0.004693
46.950,0.004693
47.000,0.004693
47.050,0.004694
47.100,0.004694
47.150,0.004695
47.200,0.004696
47.250,0.004698
47.300,0.004701
47.350,0.004708
47.400,0.004727
47.450,0.004768
47.500,0.004790
47.550,0.004798
47.600,0.004803
47.650,0.004805
47.700,0.004807
47.750,0.004808
47.800,0.004809
47.850,0.004809
47.900,0.004809
47.950,0.004809
48.000,0.004809
48.050,0.004809
48.100,0.004809
48.150,0.004809
48.200,0.004809
48.250,0.004809
48.300,0.004809
48.350,0.004809
48.400,0.004810
48.450,0.004810
48.500,0.004810
48.550,0.004810
48.600,0.004811
48.650,0.004812
48.700,0.004814
48.750,0.004817
48.800,0.004823
48.850,0.004840
48.900,0.004881
48.950,0.004908
49.000,0.004917
49.050,0.004922
49.100,0.004925
49.150,0.004927
49.200,0.004928
49.250,0.004929
49.300,0.004929
49.350,0.004929
49.400,0.004929
49.450,0.004930
49.500,0.004929
49.550,0.004929
49.600,0.004929
49.650,0.004929
49.700,0.004929
49.750,0.004929
49.800,0.004929
49.850,0.004929
49.900,0.004930
49.950,0.004930
50.000,0.004930
50.050,0.004931
50.100,0.004932
50.150,0.004933
50.200,0.004936
50.250,0.004941
50.300,0.004955
50.350,0.004994
50.400,0.005027
50.450,0.005039
50.500,0.005045
50.550,0.005048
50.600,0.005050
50.650,0.005051
50.700,0.005052
50.750,0.005052
50.800,0.005053
50.850,0.005053
50.900,0.005053
50.950,0.005053
51.000,0.005053
51.050,0.005053
51.100,0.005053
51.150,0.005053
51.200,0.005053
51.250,0.005053
51.300,0.005053
51.350,0.005053
51.400,0.005053
51.450,0.005053
51.500,0.005054
51.550,0.005055
51.600,0.005056
51.650,0.005058
51.700,0.005062
51.750,0.005072
51.800,0.005101
51.850,0.005144
51.900,0.005162
51.950,0.005170
52.000,0.005174
52.050,0.005177
52.100,0.005178
52.150,0.005179
52.200,0.005180
52.250,0.005180
52.300,0.005181
52.350,0.005181
52.400,0.005181
52.450,0.005181
52.500,0.005180
52.550,0.005180
52.600,0.005180
52.650,0.005180
52.700,0.005180
52.750,0.005180
52.800,0.005180
52.850,0.005180
52.900,0.005181
52.950,0.005181
53.000,0.005182
53.050,0.005183
53.100,0.005185
53.150,0.005189
53.200,0.005196
53.250,0.005219
53.300,0.005266
53.350,0.005291
53.400,0.005301
53.450,0.005306
53.500,0.005309
53.550,0.005311
53.600,0.005312
53.650,0.005312
53.700,0.005313
53.750,0.005313
53.800,0.005313
53.850,0.005313
53.900,0.005313
53.950,0.005313
54.000,0.005313
54.050,0.005313
54.100,0.005313
54.150,0.005312
54.200,0.005312
54.250,0.005313
54.300,0.005313
54.350,0.005313
54.400,0.005313
54.450,0.005314
54.500,0.005315
54.550,0.005317
54.600,0.005320
54.650,0.005327
54.700,0.005347
54.750,0.005395
54.800,0.005425
54.850,0.005436
54.900,0.005442
54.950,0.005445
55.000,0.005447
55.050,0.005448
55.100,0.005449
55.150,0.005449
55.200,0.005450
55.250,0.005450
55.300,0.005450
55.350,0.005450
55.400,0.005449
55.450,0.005449
55.500,0.005449
55.550,0.005449
55.600,0.005449
55.650,0.005449
55.700,0.005449
55.750,0.005449
55.800,0.005449
55.850,0.005450
55.900,0.005450
55.950,0.005451
56.000,0.005453
56.050,0.005456
56.100,0.005462
56.150,0.005478
56.200,0.005523
56.250,0.005561
56.300,0.005575
56.350,0.005581
56.400,0.005585
56.450,0.005587
56.500,0.005589
56.550,0.005590
56.600,0.005590
56.650,0.005590
56.700,0.005590
56.750,0.005590
56.800,0.005590
56.850,0.005590
56.900,0.005590
56.950,0.005590
57.000,0.005590
57.050,0.005590
57.100,0.005590
57.150,0.005590
57.200,0.005590
57.250,0.005590
57.300,0.005590
57.350,0.005591
57.400,0.005592
57.450,0.005593
57.500,0.005596
57.550,0.005600
57.600,0.005612
57.650,0.005645
57.700,0.005695
57.750,0.005716
57.800,0.005725
57.850,0.005730
57.900,0.005733
57.950,0.005735
58.000,0.005736
58.050,0.005736
58.100,0.005737
58.150,0.005737
58.200,0.005737
58.250,0.005737
58.300,0.005737
58.350,0.005736
58.400,0.005736
58.450,0.005736
58.500,0.005736
58.550,0.005736
58.600,0.005736
58.650,0.005736
58.700,0.005736
58.750,0.005736
58.800,0.005737
58.850,0.005738
58.900,0.005739
58.950,0.005741
59.000,0.005745
59.050,0.005754
59.100,0.005780
59.150,0.005834
59.200,0.005864
59.250,0.005875
59.300,0.005881
59.350,0.005884
59.400,0.005886
59.450,0.005888
59.500,0.005888
59.550,0.005889
59.600,0.005889
59.650,0.005889
59.700,0.005889
59.750,0.005889
59.800,0.005889
59.850,0.005888
59.900,0.005888
59.950,0.005888
60.000,0.005888
60.050,0.005888
60.100,0.005888
60.150,0.005888
60.200,0.005888
60.250,0.005889
60.300,0.005889
60.350,0.005891
60.400,0.005893
60.450,0.005897
60.500,0.005905
60.550,0.005928
60.600,0.005983
60.650,0.006018
60.700,0.006031
60.750,0.006038
60.800,0.006041
60.850,0.006043
60.900,0.006045
60.950,0.006046
61.000,0.006046
61.050,0.006046
61.100,0.006046
61.150,0.006046
61.200,0.006046
61.250,0.006046
61.300,0.006046
61.350,0.006045
61.400,0.006045
61.450,0.006045
61.500,0.006045
61.550,0.006045
61.600,0.006045
61.650,0.006045
61.700,0.006046
61.750,0.006046
61.800,0.006048
61.850,0.006050
61.900,0.006053
61.950,0.006060
62.000,0.006079
62.050,0.006131
62.100,0.006175
62.150,0.006191
62.200,0.006199
62.250,0.006203
62.300,0.006205
62.350,0.006207
62.400,0.006208
62.450,0.006208
62.500,0.006209
62.550,0.006209
62.600,0.006209
62.650,0.006209
62.700,0.006208
62.750,0.006208
62.800,0.006208
62.850,0.006208
62.900,0.006208
62.950,0.006207
63.000,0.006207
63.050,0.006207
63.100,0.006208
63.150,0.006208
63.200,0.006209
63.250,0.006210
63.300,0.006211
63.350,0.006214
63.400,0.006220
63.450,0.006233
63.500,0.006272
63.550,0.006330
63.600,0.006355
63.650,0.006365
63.700,0.006371
63.750,0.006374
63.800,0.006376
63.850,0.006377
63.900,0.006378
63.950,0.006378
64.000,0.006378
64.050,0.006378
64.100,0.006378
64.150,0.006378
64.200,0.006378
64.250,0.006377
64.300,0.006377
64.350,0.006377
64.400,0.006377
64.450,0.006377
64.500,0.006377
64.550,0.006377
64.600,0.006377
64.650,0.006378
64.700,0.006379
64.750,0.006380
64.800,0.006383
64.850,0.006387
64.900,0.006398
64.950,0.006428
65.000,0.006491
65.050,0.006526
65.100,0.006539
65.150,0.006546
65.200,0.006550
65.250,0.006552
65.300,0.006553
65.350,0.006554
65.400,0.006555
65.450,0.006555
65.500,0.006555
65.550,0.006555
65.600,0.006554
65.650,0.006554
65.700,0.006554
65.750,0.006554
65.800,0.006553
65.850,0.006553
65.900,0.006553
65.950,0.006553
66.000,0.006553
66.050,0.006553
66.100,0.006554
66.150,0.006555
66.200,0.006556
66.250,0.006559
66.300,0.006563
66.350,0.006573
66.400,0.006600
66.450,0.006664
66.500,0.006705
66.550,0.006721
66.600,0.006728
66.650,0.006732
66.700,0.006735
66.750,0.006736
66.800,0.006737
66.850,0.006738
66.900,0.006738
66.950,0.006738
67.000,0.006738
67.050,0.006737
67.100,0.006737
67.150,0.006737
67.200,0.006737
67.250,0.006736
67.300,0.006736
67.350,0.006736
67.400,0.006736
67.450,0.006736
67.500,0.006736
67.550,0.006737
67.600,0.006738
67.650,0.006739
67.700,0.006741
67.750,0.006745
67.800,0.006754
67.850,0.006776
67.900,0.006837
67.950,0.006888
68.000,0.006907
68.050,0.006916
68.100,0.006921
68.150,0.006924
68.200,0.006926
68.250,0.006927
68.300,0.006927
68.350,0.006927
68.400,0.006927
68.450,0.006927
68.500,0.006927
68.550,0.006927
68.600,0.006927
68.650,0.006926
68.700,0.006926
68.750,0.006926
68.800,0.006926
68.850,0.006925
68.900,0.006925
68.950,0.006926
69.000,0.006926
69.050,0.006927
69.100,0.006928
69.150,0.006930
69.200,0.006933
69.250,0.006940
69.300,0.006955
69.350,0.007002
69.400,0.007069
69.450,0.007098
69.500,0.007111
69.550,0.007117
69.600,0.007121
69.650,0.007123
69.700,0.007124
69.750,0.007125
69.800,0.007125
69.850,0.007125
69.900,0.007125
69.950,0.007125
70.000,0.007125
70.050,0.007125
70.100,0.007124
70.150,0.007124
70.200,0.007124
70.250,0.007123
70.300,0.007123
70.350,0.007123
70.400,0.007123
70.450,0.007124
70.500,0.007124
70.550,0.007125
70.600,0.007127
70.650,0.007130
70.700,0.007136
70.750,0.007148
70.800,0.007184
70.850,0.007259
70.900,0.007299
70.950,0.007314
71.000,0.007322
71.050,0.007327
71.100,0.007329
71.150,0.007331
71.200,0.007332
71.250,0.007332
71.300,0.007332
71.350,0.007332
71.400,0.007332
71.450,0.007332
71.500,0.007332
71.550,0.007331
71.600,0.007331
71.650,0.007331
71.700,0.007330
71.750,0.007330
71.800,0.007330
71.850,0.007330
71.900,0.007331
71.950,0.007331
72.000,0.007332
72.050,0.007334
72.100,0.007337
72.150,0.007342
72.200,0.007353
72.250,0.007385
72.300,0.007462
72.350,0.007510
72.400,0.007528
72.450,0.007536
72.500,0.007541
72.550,0.007544
72.600,0.007546
72.650,0.007547
72.700,0.007548
72.750,0.007548
72.800,0.007548
72.850,0.007548
72.900,0.007547
72.950,0.007547
73.000,0.007547
73.050,0.007546
73.100,0.007546
73.150,0.007546
73.200,0.007545
73.250,0.007545
73.300,0.007545
73.350,0.007546
73.400,0.007546
73.450,0.007547
73.500,0.007549
73.550,0.007551
73.600,0.007556
73.650,0.007566
73.700,0.007593
73.750,0.007666
73.800,0.007726
73.850,0.007748
73.900,0.007758
73.950,0.007764
74.000,0.007767
74.050,0.007769
74.100,0.007771
74.150,0.007771
74.200,0.007772
74.250,0.007772
74.300,0.007771
74.350,0.007771
74.400,0.007771
74.450,0.007770
74.500,0.007770
74.550,0.007770
74.600,0.007769
74.650,0.007769
74.700,0.007769
74.750,0.007769
74.800,0.007769
74.850,0.007770
74.900,0.007770
74.950,0.007772
75.000,0.007774
75.050,0.007778
75.100,0.007786
75.150,0.007805
75.200,0.007862
75.250,0.007941
75.300,0.007974
75.350,0.007988
75.400,0.007996
75.450,0.008000
75.500,0.008003
75.550,0.008004
75.600,0.008005
75.650,0.008006
75.700,0.008006
75.750,0.008006
75.800,0.008005
75.850,0.008005
75.900,0.008005
75.950,0.008004
76.000,0.008004
76.050,0.008004
76.100,0.008003
76.150,0.008003
76.200,0.008003
76.250,0.008003
76.300,0.008004
76.350,0.008004
76.400,0.008005
76.450,0.008008
76.500,0.008011
76.550,0.008018
76.600,0.008032
76.650,0.008075
76.700,0.008164
76.750,0.008212
76.800,0.008230
76.850,0.008239
76.900,0.008245
76.950,0.008248
77.000,0.008250
77.050,0.008251
77.100,0.008251
77.150,0.008251
77.200,0.008251
77.250,0.008251
77.300,0.008251
77.350,0.008250
77.400,0.008250
77.450,0.008250
77.500,0.008249
77.550,0.008249
77.600,0.008249
77.650,0.008249
77.700,0.008249
77.750,0.008249
77.800,0.008250
77.850,0.008251
77.900,0.008253
77.950,0.008256
78.000,0.008262
78.050,0.008276
78.100,0.008314
78.150,0.008405
78.200,0.008463
78.250,0.008484
78.300,0.008494
78.350,0.008500
78.400,0.008504
78.450,0.008506
78.500,0.008507
78.550,0.008508
78.600,0.008508
78.650,0.008508
78.700,0.008507
78.750,0.008507
78.800,0.008507
78.850,0.008506
78.900,0.008506
78.950,0.008505
79.000,0.008505
79.050,0.008505
79.100,0.008505
79.150,0.008505
79.200,0.008505
79.250,0.008506
79.300,0.008507
79.350,0.008509
79.400,0.008512
79.450,0.008517
79.500,0.008529
79.550,0.008562
79.600,0.008649
79.650,0.008721
79.700,0.008747
79.750,0.008759
79.800,0.008766
79.850,0.008770
79.900,0.008772
79.950,0.008774
80.000,0.008775
80.050,0.008775
80.100,0.008775
80.150,0.008775
80.200,0.008774
80.250,0.008774
80.300,0.008773
80.350,0.008773
80.400,0.008772
80.450,0.008772
80.500,0.008772
80.550,0.008771
80.600,0.008771
80.650,0.008772
80.700,0.008772
80.750,0.008773
80.800,0.008775
80.850,0.008778
80.900,0.008782
80.950,0.008792
81.000,0.008815
81.050,0.008884
81.100,0.008978
81.150,0.009018
81.200,0.009034
81.250,0.009043
81.300,0.009048
81.350,0.009051
81.400,0.009053
81.450,0.009054
81.500,0.009055
81.550,0.009055
81.600,0.009054
81.650,0.009054
81.700,0.009054
81.750,0.009053
81.800,0.009053
81.850,0.009052
81.900,0.009052
81.950,0.009051
82.000,0.009051
82.050,0.009051
82.100,0.009051
82.150,0.009052
82.200,0.009052
82.250,0.009054
82.300,0.009056
82.350,0.009061
82.400,0.009068
82.450,0.009086
82.500,0.009138
82.550,0.009244
82.600,0.009302
82.650,0.009324
82.700,0.009335
82.750,0.009341
82.800,0.009345
82.850,0.009347
82.900,0.009348
82.950,0.009349
83.000,0.009349
83.050,0.009349
83.100,0.009349
83.150,0.009348
83.200,0.009348
83.250,0.009347
83.300,0.009347
83.350,0.009346
83.400,0.009346
83.450,0.009346
83.500,0.009345
83.550,0.009346
83.600,0.009346
83.650,0.009347
83.700,0.009348
83.750,0.009350
83.800,0.009355
83.850,0.009362
83.900,0.009379
83.950,0.009425
84.000,0.009535
84.050,0.009603
84.100,0.009629
84.150,0.009641
84.200,0.009648
84.250,0.009653
84.300,0.009655
84.350,0.009657
84.400,0.009657
84.450,0.009658
84.500,0.009657
84.550,0.009657
84.600,0.009657
84.650,0.009656
84.700,0.009656
84.750,0.009655
84.800,0.009655
84.850,0.009654
84.900,0.009654
84.950,0.009654
85.000,0.009654
85.050,0.009654
85.100,0.009655
85.150,0.009656
85.200,0.009658
85.250,0.009662
85.300,0.009669
85.350,0.009684
85.400,0.009723
85.450,0.009829
85.500,0.009915
85.550,0.009946
85.600,0.009961
85.650,0.009969
85.700,0.009974
85.750,0.009977
85.800,0.009979
85.850,0.009979
85.900,0.009980
85.950,0.009980
86.000,0.009979
86.050,0.009979
86.100,0.009978
86.150,0.009978
86.200,0.009977
86.250,0.009977
86.300,0.009976
86.350,0.009976
86.400,0.009976
86.450,0.009976
86.500,0.009976
86.550,0.009976
86.600,0.009978
86.650,0.009980
86.700,0.009983
86.750,0.009989
86.800,0.010000
86.850,0.010029
86.900,0.010113
86.950,0.010227
87.000,0.010274
87.050,0.010294
87.100,0.010305
87.150,0.010311
87.200,0.010314
87.250,0.010317
87.300,0.010318
87.350,0.010318
87.400,0.010318
87.450,0.010318
87.500,0.010318
87.550,0.010317
87.600,0.010317
87.650,0.010316
87.700,0.010315
87.750,0.010315
87.800,0.010314
87.850,0.010314
87.900,0.010314
87.950,0.010314
88.000,0.010315
88.050,0.010316
88.100,0.010317
88.150,0.010320
88.200,0.010325
88.250,0.010335
88.300,0.010357
88.350,0.010420
88.400,0.010549
88.450,0.010619
88.500,0.010645
88.550,0.010659
88.600,0.010666
88.650,0.010671
88.700,0.010674
88.750,0.010675
88.800,0.010676
88.850,0.010676
88.900,0.010676
88.950,0.010676
89.000,0.010675
89.050,0.010674
89.100,0.010674
89.150,0.010673
89.200,0.010673
89.250,0.010672
89.300,0.010672
89.350,0.010671
89.400,0.010672
89.450,0.010672
89.500,0.010673
89.550,0.010675
89.600,0.010678
89.650,0.010683
89.700,0.010692
89.750,0.010712
89.800,0.010769
89.850,0.010903
89.900,0.010986
89.950,0.011017
90.000,0.011032
90.050,0.011041
90.100,0.011046
90.150,0.011049
90.200,0.011051
90.250,0.011051
90.300,0.011052
90.350,0.011052
90.400,0.011051
90.450,0.011051
90.500,0.011050
90.550,0.011049
90.600,0.011049
90.650,0.011048
90.700,0.011047
90.750,0.011047
90.800,0.011047
90.850,0.011047
90.900,0.011047
90.950,0.011048
91.000,0.011050
91.050,0.011052
91.100,0.011057
91.150,0.011066
91.200,0.011084
91.250,0.011132
91.300,0.011262
91.350,0.011366
91.400,0.011405
91.450,0.011423
91.500,0.011433
91.550,0.011438
91.600,0.011442
91.650,0.011444
91.700,0.011445
91.750,0.011445
91.800,0.011445
91.850,0.011445
91.900,0.011444
91.950,0.011444
92.000,0.011443
92.050,0.011442
92.100,0.011442
92.150,0.011441
92.200,0.011441
92.250,0.011440
92.300,0.011440
92.350,0.011441
92.400,0.011441
92.450,0.011443
92.500,0.011445
92.550,0.011449
92.600,0.011457
92.650,0.011471
92.700,0.011506
92.750,0.011611
92.800,0.011750
92.850,0.011807
92.900,0.011831
92.950,0.011844
93.000,0.011851
93.050,0.011856
93.100,0.011859
93.150,0.011860
93.200,0.011861
93.250,0.011861
93.300,0.011860
93.350,0.011860
93.400,0.011859
93.450,0.011858
93.500,0.011858
93.550,0.011857
93.600,0.011856
93.650,0.011856
93.700,0.011855
93.750,0.011855
93.800,0.011855
93.850,0.011856
93.900,0.011857
93.950,0.011859
94.000,0.011863
94.050,0.011869
94.100,0.011881
94.150,0.011908
94.200,0.011986
94.250,0.012145
94.300,0.012230
94.350,0.012263
94.400,0.012280
94.450,0.012289
94.500,0.012295
94.550,0.012298
94.600,0.012300
94.650,0.012301
94.700,0.012301
94.750,0.012301
94.800,0.012300
94.850,0.012300
94.900,0.012299
94.950,0.012298
95.000,0.012297
95.050,0.012297
95.100,0.012296
95.150,0.012296
95.200,0.012295
95.250,0.012296
95.300,0.012296
95.350,0.012297
95.400,0.012299
95.450,0.012303
95.500,0.012309
95.550,0.012321
95.600,0.012345
95.650,0.012416
95.700,0.012582
95.750,0.012684
95.800,0.012722
95.850,0.012741
95.900,0.012752
95.950,0.012758
96.000,0.012762
96.050,0.012764
96.100,0.012765
96.150,0.012765
96.200,0.012765
96.250,0.012765
96.300,0.012764
96.350,0.012763
96.400,0.012762
96.450,0.012761
96.500,0.012761
96.550,0.012760
96.600,0.012760
96.650,0.012759
96.700,0.012759
96.750,0.012760
96.800,0.012761
96.850,0.012763
96.900,0.012766
96.950,0.012772
97.000,0.012783
97.050,0.012805
97.100,0.012865
97.150,0.013028
97.200,0.013156
97.250,0.013203
97.300,0.013225
97.350,0.013238
97.400,0.013245
97.450,0.013249
97.500,0.013252
97.550,0.013253
97.600,0.013254
97.650,0.013253
97.700,0.013253
97.750,0.013252
97.800,0.013252
97.850,0.013251
97.900,0.013250
97.950,0.013249
98.000,0.013248
98.050,0.013248
98.100,0.013247
98.150,0.013247
98.200,0.013248
98.250,0.013248
98.300,0.013250
98.350,0.013253
98.400,0.013259
98.450,0.013268
98.500,0.013286
98.550,0.013330
98.600,0.013462
98.650,0.013633
98.700,0.013703
98.750,0.013733
98.800,0.013749
98.850,0.013758
98.900,0.013764
98.950,0.013767
99.000,0.013769
99.050,0.013770
99.100,0.013770
99.150,0.013770
99.200,0.013769
99.250,0.013768
99.300,0.013767
99.350,0.013766
99.400,0.013765
99.450,0.013765
99.500,0.013764
99.550,0.013764
99.600,0.013763
99.650,0.013764
99.700,0.013764
99.750,0.013766
99.800,0.013769
99.850,0.013773
99.900,0.013781
99.950,0.013796
100.000,0.013829
100.050,0.013926
100.100,0.014125
100.150,0.014232
100.200,0.014273
100.250,0.014293
100.300,0.014305
100.350,0.014312
100.400,0.014316
100.450,0.014318
100.500,0.014320
100.550,0.014320
100.600,0.014320
100.650,0.014319
100.700,0.014318
100.750,0.014317
100.800,0.014316
100.850,0.014315
100.900,0.014315
100.950,0.014314
101.000,0.014313
101.050,0.014313
101.100,0.014313
101.150,0.014314
101.200,0.014315
101.250,0.014318
101.300,0.014323
101.350,0.014330
101.400,0.014345
101.450,0.014376
101.500,0.014464
101.550,0.014672
101.600,0.014800
101.650,0.014848
101.700,0.014871
101.750,0.014885
101.800,0.014893
101.850,0.014897
101.900,0.014900
101.950,0.014901
102.000,0.014902
102.050,0.014902
102.100,0.014901
102.150,0.014900
102.200,0.014899
102.250,0.014898
102.300,0.014897
102.350,0.014896
102.400,0.014896
102.450,0.014895
102.500,0.014895
102.550,0.014895
102.600,0.014895
102.650,0.014897
102.700,0.014899
102.750,0.014904
102.800,0.014911
102.850,0.014925
102.900,0.014953
102.950,0.015029
103.000,0.015233
103.050,0.015394
103.100,0.015453
103.150,0.015481
103.200,0.015497
103.250,0.015506
103.300,0.015511
103.350,0.015515
103.400,0.015516
103.450,0.015517
103.500,0.015517
103.550,0.015516
103.600,0.015515
103.650,0.015514
103.700,0.015513
103.750,0.015512
103.800,0.015511
103.850,0.015510
103.900,0.015510
103.950,0.015509
104.000,0.015509
104.050,0.015510
104.100,0.015511
104.150,0.015513
104.200,0.015517
104.250,0.015524
104.300,0.015535
104.350,0.015558
104.400,0.015615
104.450,0.015782
104.500,0.015998
104.550,0.016086
104.600,0.016123
104.650,0.016143
104.700,0.016155
104.750,0.016162
104.800,0.016166
104.850,0.016169
104.900,0.016170
104.950,0.016170
105.000,0.016169
105.050,0.016169
105.100,0.016168
105.150,0.016167
105.200,0.016166
105.250,0.016164
105.300,0.016163
105.350,0.016163
105.400,0.016162
105.450,0.016162
105.500,0.016162
105.550,0.016163
105.600,0.016165
105.650,0.016169
105.700,0.016175
105.750,0.016185
105.800,0.016204
105.850,0.016246
105.900,0.016369
105.950,0.016622
106.000,0.016756
106.050,0.016808
106.100,0.016834
106.150,0.016849
106.200,0.016858
106.250,0.016863
106.300,0.016866
106.350,0.016868
106.400,0.016868
106.450,0.016868
106.500,0.016867
106.550,0.016866
106.600,0.016865
106.650,0.016864
106.700,0.016863
106.750,0.016862
106.800,0.016861
106.850,0.016860
106.900,0.016860
106.950,0.016860
107.000,0.016861
107.050,0.016863
107.100,0.016867
107.150,0.016872
107.200,0.016882
107.250,0.016901
107.300,0.016940
107.350,0.017053
107.400,0.017318
107.450,0.017481
107.500,0.017542
107.550,0.017571
107.600,0.017588
107.650,0.017598
107.700,0.017604
107.750,0.017608
107.800,0.017610
107.850,0.017610
107.900,0.017610
107.950,0.017609
108.000,0.017608
108.050,0.017607
108.100,0.017606
108.150,0.017605
108.200,0.017604
108.250,0.017603
108.300,0.017602
108.350,0.017601
108.400,0.017602
108.450,0.017603
108.500,0.017604
108.550,0.017608
108.600,0.017613
108.650,0.017623
108.700,0.017640
108.750,0.017676
108.800,0.017774
108.850,0.018037
108.900,0.018241
108.950,0.018317
109.000,0.018352
109.050,0.018372
109.100,0.018384
109.150,0.018391
109.200,0.018395
109.250,0.018397
109.300,0.018398
109.350,0.018398
109.400,0.018397
109.450,0.018396
109.500,0.018395
109.550,0.018394
109.600,0.018392
109.650,0.018391
109.700,0.018390
109.750,0.018389
109.800,0.018389
109.850,0.018389
109.900,0.018389
109.950,0.018391
110.000,0.018394
110.050,0.018399
110.100,0.018408
110.150,0.018423
110.200,0.018453
110.250,0.018526
110.300,0.018745
110.350,0.019020
110.400,0.019130
110.450,0.019178
110.500,0.019204
110.550,0.019219
110.600,0.019228
110.650,0.019233
110.700,0.019236
110.750,0.019238
110.800,0.019238
110.850,0.019238
110.900,0.019237
110.950,0.019235
111.000,0.019234
111.050,0.019233
111.100,0.019231
111.150,0.019230
111.200,0.019229
111.250,0.019228
111.300,0.019228
111.350,0.019229
111.400,0.019230
111.450,0.019233
111.500,0.019237
111.550,0.019245
111.600,0.019258
111.650,0.019283
111.700,0.019338
111.750,0.019498
111.800,0.019824
111.850,0.019996
111.900,0.020063
111.950,0.020096
112.000,0.020115
112.050,0.020127
112.100,0.020134
112.150,0.020138
112.200,0.020140
112.250,0.020141
112.300,0.020140
112.350,0.020139
112.400,0.020138
112.450,0.020137
112.500,0.020135
112.550,0.020134
112.600,0.020133
112.650,0.020132
112.700,0.020131
112.750,0.020130
112.800,0.020131
112.850,0.020132
112.900,0.020135
112.950,0.020139
113.000,0.020147
113.050,0.020160
113.100,0.020184
113.150,0.020236
113.200,0.020385
113.250,0.020729
113.300,0.020938
113.350,0.021016
113.400,0.021054
113.450,0.021076
113.500,0.021089
113.550,0.021097
113.600,0.021101
113.650,0.021104
113.700,0.021105
113.750,0.021104
113.800,0.021104
113.850,0.021102
113.900,0.021101
113.950,0.021099
114.000,0.021098
114.050,0.021096
114.100,0.021095
114.150,0.021094
114.200,0.021094
114.250,0.021094
114.300,0.021095
114.350,0.021098
114.400,0.021102
114.450,0.021110
114.500,0.021123
114.550,0.021145
114.600,0.021194
114.650,0.021324
114.700,0.021670
114.750,0.021932
114.800,0.022028
114.850,0.022074
114.900,0.022099
114.950,0.022115
115.000,0.022124
115.050,0.022129
115.100,0.022132
115.150,0.022133
115.200,0.022133
115.250,0.022132
115.300,0.022131
115.350,0.022129
115.400,0.022128
115.450,0.022126
115.500,0.022125
115.550,0.022123
115.600,0.022122
115.650,0.022122
115.700,0.022122
115.750,0.022123
115.800,0.022125
115.850,0.022129
115.900,0.022136
115.950,0.022148
116.000,0.022168
116.050,0.022208
116.100,0.022309
116.150,0.022606
116.200,0.022957
116.250,0.023096
116.300,0.023157
116.350,0.023190
116.400,0.023209
116.450,0.023221
116.500,0.023228
116.550,0.023232
116.600,0.023233
116.650,0.023234
116.700,0.023233
116.750,0.023232
116.800,0.023230
116.850,0.023229
116.900,0.023227
116.950,0.023225
117.000,0.023224
117.050,0.023222
117.100,0.023222
117.150,0.023222
117.200,0.023222
117.250,0.023224
117.300,0.023228
117.350,0.023234
117.400,0.023244
117.450,0.023262
117.500,0.023295
117.550,0.023369
117.600,0.023584
117.650,0.024013
117.700,0.024235
117.750,0.024322
117.800,0.024365
117.850,0.024390
117.900,0.024405
117.950,0.024415
118.000,0.024420
118.050,0.024422
118.100,0.024423
118.150,0.024423
118.200,0.024422
118.250,0.024421
118.300,0.024419
118.350,0.024417
118.400,0.024415
118.450,0.024414
118.500,0.024412
118.550,0.024411
118.600,0.024411
118.650,0.024412
118.700,0.024414
118.750,0.024417
118.800,0.024423
118.850,0.024434
118.900,0.024451
118.950,0.024483
119.000,0.024554
119.050,0.024755
119.100,0.025212
119.150,0.025483
119.200,0.025585
119.250,0.025635
119.300,0.025664
119.350,0.025681
119.400,0.025691
119.450,0.025697
119.500,0.025700
119.550,0.025702
119.600,0.025701
119.650,0.025700
119.700,0.025699
119.750,0.025697
119.800,0.025695
119.850,0.025693
119.900,0.025691
119.950,0.025690
120.000,0.025689
120.050,0.025689
120.100,0.025689
120.150,0.025691
120.200,0.025694
120.250,0.025701
120.300,0.025711
120.350,0.025728
120.400,0.025759
120.450,0.025826
120.500,0.026008
120.550,0.026477
120.600,0.026813
120.650,0.026936
120.700,0.026996
120.750,0.027029
120.800,0.027049
120.850,0.027061
120.900,0.027068
120.950,0.027072
121.000,0.027073
121.050,0.027073
121.100,0.027073
121.150,0.027071
121.200,0.027069
121.250,0.027067
121.300,0.027065
121.350,0.027063
121.400,0.027061
121.450,0.027060
121.500,0.027059
121.550,0.027060
121.600,0.027061
121.650,0.027065
121.700,0.027071
121.750,0.027080
121.800,0.027097
121.850,0.027125
121.900,0.027183
121.950,0.027329
122.000,0.027756
122.050,0.028202
122.100,0.028372
122.150,0.028449
122.200,0.028491
122.250,0.028516
122.300,0.028531
122.350,0.028540
122.400,0.028545
122.450,0.028547
122.500,0.028548
122.550,0.028547
122.600,0.028546
122.650,0.028544
122.700,0.028541
122.750,0.028539
122.800,0.028537
122.850,0.028535
122.900,0.028534
122.950,0.028533
123.000,0.028533
123.050,0.028534
123.100,0.028537
123.150,0.028542
123.200,0.028551
123.250,0.028565
123.300,0.028590
123.350,0.028636
123.400,0.028742
123.450,0.029053
123.500,0.029625
123.550,0.029906
123.600,0.030017
123.650,0.030074
123.700,0.030107
123.750,0.030127
123.800,0.030139
123.850,0.030146
123.900,0.030149
123.950,0.030150
124.000,0.030150
124.050,0.030149
124.100,0.030147
124.150,0.030145
124.200,0.030142
124.250,0.030140
124.300,0.030138
124.350,0.030136
124.400,0.030135
124.450,0.030135
124.500,0.030136
124.550,0.030139
124.600,0.030144
124.650,0.030153
124.700,0.030168
124.750,0.030192
124.800,0.030237
124.850,0.030338
124.900,0.030628
124.950,0.031250
125.000,0.031597
125.050,0.031729
125.100,0.031795
125.150,0.031832
125.200,0.031855
125.250,0.031869
125.300,0.031877
125.350,0.031881
125.400,0.031883
125.450,0.031883
125.500,0.031882
125.550,0.031880
125.600,0.031877
125.650,0.031875
125.700,0.031872
125.750,0.031870
125.800,0.031868
125.850,0.031867
125.900,0.031867
125.950,0.031868
126.000,0.031870
126.050,0.031876
126.100,0.031884
126.150,0.031899
126.200,0.031924
126.250,0.031969
126.300,0.032067
126.350,0.032340
126.400,0.032998
126.450,0.033420
126.500,0.033576
126.550,0.033653
126.600,0.033696
126.650,0.033722
126.700,0.033738
126.750,0.033748
126.800,0.033753
126.850,0.033755
126.900,0.033755
126.950,0.033753
127.000,0.033751
127.050,0.033749
127.100,0.033746
127.150,0.033743
127.200,0.033741
127.250,0.033739
127.300,0.033737
127.350,0.033737
127.400,0.033738
127.450,0.033740
127.500,0.033746
127.550,0.033754
127.600,0.033769
127.650,0.033793
127.700,0.033837
127.750,0.033927
127.800,0.034168
127.850,0.034826
127.900,0.035362
127.950,0.035560
128.000,0.035653
128.050,0.035705
128.100,0.035736
128.150,0.035755
128.200,0.035766
128.250,0.035773
128.300,0.035775
128.350,0.035776
128.400,0.035774
128.450,0.035772
128.500,0.035770
128.550,0.035767
128.600,0.035764
128.650,0.035761
128.700,0.035759
128.750,0.035757
128.800,0.035756
128.850,0.035757
128.900,0.035759
128.950,0.035764
129.000,0.035772
129.050,0.035786
129.100,0.035808
129.150,0.035847
129.200,0.035923
129.250,0.036108
129.300,0.036660
129.350,0.037384
129.400,0.037682
129.450,0.037809
129.500,0.037878
129.550,0.037918
129.600,0.037942
129.650,0.037957
129.700,0.037965
129.750,0.037969
129.800,0.037971
129.850,0.037970
129.900,0.037968
129.950,0.037966
130.000,0.037963
130.050,0.037959
130.100,0.037956
130.150,0.037954
130.200,0.037952
130.250,0.037951
130.300,0.037951
130.350,0.037953
130.400,0.037957
130.450,0.037965
130.500,0.037978
130.550,0.037999
130.600,0.038034
130.650,0.038101
130.700,0.038250
130.750,0.038686
130.800,0.039545
130.850,0.039990
130.900,0.040163
130.950,0.040251
131.000,0.040302
131.050,0.040332
131.100,0.040351
131.150,0.040362
131.200,0.040368
131.250,0.040370
131.300,0.040370
131.350,0.040369
131.400,0.040366
131.450,0.040363
131.500,0.040360
131.550,0.040357
131.600,0.040354
131.650,0.040352
131.700,0.040351
131.750,0.040351
131.800,0.040353
131.850,0.040358
131.900,0.040366
131.950,0.040379
132.000,0.040401
132.050,0.040438
132.100,0.040506
132.150,0.040655
132.200,0.041080
132.250,0.042013
132.300,0.042546
132.350,0.042748
132.400,0.042849
132.450,0.042907
132.500,0.042943
132.550,0.042964
132.600,0.042977
132.650,0.042985
132.700,0.042988
132.750,0.042989
132.800,0.042988
132.850,0.042986
132.900,0.042984
132.950,0.042982
133.000,0.042979
133.050,0.042977
133.100,0.042976
133.150,0.042976
133.200,0.042977
133.250,0.042981
133.300,0.042987
133.350,0.042997
133.400,0.043012
133.450,0.043036
133.500,0.043076
133.550,0.043146
133.600,0.043295
133.650,0.043705
133.700,0.044700
133.750,0.045345
133.800,0.045586
133.850,0.045705
133.900,0.045774
133.950,0.045817
134.000,0.045844
134.050,0.045863
134.100,0.045875
134.150,0.045884
134.200,0.045890
134.250,0.045894
134.300,0.045898
134.350,0.045902
134.400,0.045905
134.450,0.045909
134.500,0.045913
134.550,0.045918
134.600,0.045925
134.650,0.045932
134.700,0.045942
134.750,0.045954
134.800,0.045969
134.850,0.045990
134.900,0.046020
134.950,0.046064
135.000,0.046137
135.050,0.046282
135.100,0.046658
135.150,0.047669
135.200,0.048487
135.250,0.048799
135.300,0.048959
135.350,0.049063
135.400,0.049141
135.450,0.049204
135.500,0.049259
135.550,0.049307
135.600,0.049350
135.650,0.049390
135.700,0.049426
135.750,0.049460
135.800,0.049490
135.850,0.049517
135.900,0.049541
135.950,0.049562
136.000,0.049580
136.050,0.049596
136.100,0.049609
136.150,0.049621
136.200,0.049632
136.250,0.049644
136.300,0.049658
136.350,0.049680
136.400,0.049714
136.450,0.049775
136.500,0.049902
136.550,0.050221
136.600,0.051172
136.650,0.052442
136.700,0.053214
136.750,0.053758
136.800,0.054182
136.850,0.054519
136.900,0.054782
136.950,0.054980
137.000,0.055121
137.050,0.055211
137.100,0.055255
137.150,0.055258
137.200,0.055224
137.250,0.055159
137.300,0.055065
137.350,0.054948
137.400,0.054811
137.450,0.054659
137.500,0.054497
137.550,0.054331
137.600,0.054166
137.650,0.054012
137.700,0.053879
137.750,0.053786
137.800,0.053767
137.850,0.053888
137.900,0.054314
137.950,0.055557
138.000,0.059641
138.050,0.070124
138.100,0.075663
138.150,0.075884
138.200,0.074566
138.250,0.072684
138.300,0.070567
138.350,0.068361
138.400,0.066140
138.450,0.063944
138.500,0.061796
138.550,0.059703
138.600,0.057661
138.650,0.055649
138.700,0.053626
138.750,0.051508
138.800,0.049128
138.850,0.046089
138.900,0.041193
138.950,0.029638
139.000,-0.001074
139.050,-0.022940
139.100,-0.029571
139.150,-0.031969
139.200,-0.032814
139.250,-0.032955
139.300,-0.032732
139.350,-0.032311
139.400,-0.031779
139.450,-0.031186
139.500,-0.030562
139.550,-0.029924
139.600,-0.029286
139.650,-0.028653
139.700,-0.028030
139.750,-0.027419
139.800,-0.026822
139.850,-0.026239
139.900,-0.025671
139.950,-0.025118
140.000,-0.024579
140.050,-0.024054
140.100,-0.023543
140.150,-0.023045
140.200,-0.022559
140.250,-0.022087
140.300,-0.021626
140.350,-0.021177
140.400,-0.020739
140.450,-0.020311
140.500,-0.019895
140.550,-0.019488
140.600,-0.019091
140.650,-0.018704
140.700,-0.018325
140.750,-0.017956
140.800,-0.017594
140.850,-0.017242
140.900,-0.016897
140.950,-0.016560
141.000,-0.016230
141.050,-0.015907
141.100,-0.015592
141.150,-0.015283
141.200,-0.014981
141.250,-0.014686
141.300,-0.014396
141.350,-0.014113
141.400,-0.013835
141.450,-0.013563
141.500,-0.013297
141.550,-0.013036
141.600,-0.012780
141.650,-0.012529
141.700,-0.012283
141.750,-0.012042
141.800,-0.011806
141.850,-0.011574
141.900,-0.011346
141.950,-0.011123
142.000,-0.010904
142.050,-0.010690
142.100,-0.010479
142.150,-0.010272
142.200,-0.010069
142.250,-0.009870
142.300,-0.009674
142.350,-0.009482
142.400,-0.009293
142.450,-0.009108
142.500,-0.008926
142.550,-0.008748
142.600,-0.008572
142.650,-0.008400
142.700,-0.008230
142.750,-0.008064
142.800,-0.007901
142.850,-0.007740
142.900,-0.007582
142.950,-0.007427
143.000,-0.007275
143.050,-0.007125
143.100,-0.006978
143.150,-0.006833
143.200,-0.006691
143.250,-0.006552
143.300,-0.006414
143.350,-0.006280
143.400,-0.006147
143.450,-0.006016
143.500,-0.005888
143.550,-0.005762
143.600,-0.005638
143.650,-0.005517
143.700,-0.005397
143.750,-0.005279
143.800,-0.005164
143.850,-0.005050
143.900,-0.004938
143.950,-0.004828
144.000,-0.004720
144.050,-0.004614
144.100,-0.004510
144.150,-0.004407
144.200,-0.004306
144.250,-0.004207
144.300,-0.004109
144.350,-0.004013
144.400,-0.003919
144.450,-0.003826
144.500,-0.003735
144.550,-0.003645
144.600,-0.003556
144.650,-0.003470
144.700,-0.003384
144.750,-0.003301
144.800,-0.003218
144.850,-0.003137
144.900,-0.003057
144.950,-0.002979
145.000,-0.002902
145.050,-0.002826
145.100,-0.002752
145.150,-0.002678
145.200,-0.002606
145.250,-0.002536
145.300,-0.002466
145.350,-0.002397
145.400,-0.002330
145.450,-0.002264
145.500,-0.002199
145.550,-0.002135
145.600,-0.002072
145.650,-0.002010
145.700,-0.001949
145.750,-0.001890
145.800,-0.001831
145.850,-0.001773
145.900,-0.001717
145.950,-0.001661
146.000,-0.001606
146.050,-0.001552
146.100,-0.001499
146.150,-0.001447
146.200,-0.001396
146.250,-0.001346
146.300,-0.001297
146.350,-0.001248
146.400,-0.001200
146.450,-0.001153
146.500,-0.001107
146.550,-0.001062
146.600,-0.001017
146.650,-0.000973
146.700,-0.000930
146.750,-0.000888
146.800,-0.000846
146.850,-0.000805
146.900,-0.000765
146.950,-0.000725
147.000,-0.000686
147.050,-0.000648
147.100,-0.000610
147.150,-0.000573
147.200,-0.000537
147.250,-0.000501
147.300,-0.000466
147.350,-0.000432
147.400,-0.000398
147.450,-0.000364
147.500,-0.000331
147.550,-0.000299
147.600,-0.000267
147.650,-0.000236
147.700,-0.000206
147.750,-0.000175
147.800,-0.000146
147.850,-0.000117
147.900,-0.000088
147.950,-0.000060
148.000,-0.000032
148.050,-0.000005
148.100,0.000022
148.150,0.000048
148.200,0.000074
148.250,0.000100
148.300,0.000125
148.350,0.000149
148.400,0.000173
148.450,0.000197
148.500,0.000221
148.550,0.000244
148.600,0.000266
148.650,0.000289
148.700,0.000310
148.750,0.000332
148.800,0.000353
148.850,0.000374
148.900,0.000394
148.950,0.000414
149.000,0.000433
149.050,0.000453
149.100,0.000472
149.150,0.000490
149.200,0.000508
149.250,0.000526
149.300,0.000544
149.350,0.000561
149.400,0.000578
149.450,0.000595
149.500,0.000611
149.550,0.000627
149.600,0.000643
149.650,0.000658
149.700,0.000674
149.750,0.000689
149.800,0.000703
149.850,0.000718
149.900,0.000732
149.950,0.000746
150.000,0.000759
150.050,0.000773
150.100,0.000786
150.150,0.000799
150.200,0.000811
150.250,0.000823
150.300,0.000835
150.350,0.000847
150.400,0.000859
150.450,0.000870
150.500,0.000882
150.550,0.000893
150.600,0.000904
150.650,0.000914
150.700,0.000924
150.750,0.000934
150.800,0.000944
150.850,0.000954
150.900,0.000964
150.950,0.000973
151.000,0.000982
151.050,0.000991
151.100,0.001000
151.150,0.001008
151.200,0.001017
151.250,0.001025
151.300,0.001033
151.350,0.001041
151.400,0.001049
151.450,0.001056
151.500,0.001064
151.550,0.001071
151.600,0.001078
151.650,0.001085
151.700,0.001092
151.750,0.001099
151.800,0.001105
151.850,0.001111
151.900,0.001117
151.950,0.001123
152.000,0.001129
152.050,0.001135
152.100,0.001140
152.150,0.001146
152.200,0.001151
152.250,0.001156
152.300,0.001161
152.350,0.001166
152.400,0.001171
152.450,0.001176
152.500,0.001180
152.550,0.001185
152.600,0.001189
152.650,0.001194
152.700,0.001198
152.750,0.001202
152.800,0.001206
152.850,0.001210
152.900,0.001214
152.950,0.001217
153.000,0.001221
153.050,0.001224
153.100,0.001227
153.150,0.001231
153.200,0.001234
153.250,0.001237
153.300,0.001240
153.350,0.001242
153.400,0.001245
153.450,0.001248
153.500,0.001250
153.550,0.001253
153.600,0.001255
153.650,0.001258
153.700,0.001260
153.750,0.001262
153.800,0.001264
153.850,0.001266
153.900,0.001268
153.950,0.001270
154.000,0.001272
154.050,0.001274
154.100,0.001276
154.150,0.001277
154.200,0.001279
154.250,0.001280
154.300,0.001282
154.350,0.001283
154.400,0.001284
154.450,0.001286
154.500,0.001287
154.550,0.001288
154.600,0.001289
154.650,0.001290
154.700,0.001290
154.750,0.001291
154.800,0.001292
154.850,0.001293
154.900,0.001293
154.950,0.001294
155.000,0.001294
155.050,0.001294
155.100,0.001295
155.150,0.001295
155.200,0.001296
155.250,0.001296
155.300,0.001296
155.350,0.001296
155.400,0.001296
155.450,0.001296
155.500,0.001296
155.550,0.001296
155.600,0.001295
155.650,0.001295
155.700,0.001295
155.750,0.001295
155.800,0.001294
155.850,0.001294
155.900,0.001293
155.950,0.001293
156.000,0.001292
156.050,0.001291
156.100,0.001291
156.150,0.001290
156.200,0.001289
156.250,0.001288
156.300,0.001287
156.350,0.001286
156.400,0.001285
156.450,0.001284
156.500,0.001283
156.550,0.001282
156.600,0.001281
156.650,0.001280
156.700,0.001278
156.750,0.001277
156.800,0.001276
156.850,0.001274
156.900,0.001273
156.950,0.001272
157.000,0.001270
157.050,0.001269
157.100,0.001267
157.150,0.001265
157.200,0.001264
157.250,0.001262
157.300,0.001260
157.350,0.001259
157.400,0.001257
157.450,0.001255
157.500,0.001253
157.550,0.001251
157.600,0.001249
157.650,0.001247
157.700,0.001245
157.750,0.001243
157.800,0.001241
157.850,0.001239
157.900,0.001237
157.950,0.001234
158.000,0.001232
158.050,0.001230
158.100,0.001227
158.150,0.001225
158.200,0.001223
158.250,0.001220
158.300,0.001218
158.350,0.001216
158.400,0.001213
158.450,0.001211
158.500,0.001208
158.550,0.001206
158.600,0.001203
158.650,0.001201
158.700,0.001198
158.750,0.001196
158.800,0.001193
158.850,0.001191
158.900,0.001188
158.950,0.001185
159.000,0.001183
159.050,0.001180
159.100,0.001177
159.150,0.001174
159.200,0.001172
159.250,0.001169
159.300,0.001166
159.350,0.001163
159.400,0.001161
159.450,0.001158
159.500,0.001155
159.550,0.001152
159.600,0.001150
159.650,0.001147
159.700,0.001144
159.750,0.001141
159.800,0.001138
159.850,0.001135
159.900,0.001133
159.950,0.001130
160.000,0.001127
160.050,0.001124
160.100,0.001121
160.150,0.001118
160.200,0.001115
160.250,0.001112
160.300,0.001109
160.350,0.001106
160.400,0.001103
160.450,0.001100
160.500,0.001097
160.550,0.001094
160.600,0.001091
160.650,0.001088
160.700,0.001085
160.750,0.001082
160.800,0.001079
160.850,0.001076
160.900,0.001073
160.950,0.001070
161.000,0.001067
161.050,0.001063
161.100,0.001060
161.150,0.001057
161.200,0.001054
161.250,0.001050
161.300,0.001047
161.350,0.001044
161.400,0.001041
161.450,0.001037
161.500,0.001034
161.550,0.001031
161.600,0.001027
161.650,0.001024
161.700,0.001021
161.750,0.001017
161.800,0.001014
161.850,0.001011
161.900,0.001007
161.950,0.001004
162.000,0.001000
162.050,0.000997
162.100,0.000994
162.150,0.000990
162.200,0.000987
162.250,0.000983
162.300,0.000980
162.350,0.000976
162.400,0.000972
162.450,0.000969
162.500,0.000965
162.550,0.000962
162.600,0.000958
162.650,0.000954
162.700,0.000951
162.750,0.000947
162.800,0.000943
162.850,0.000940
162.900,0.000936
162.950,0.000932
163.000,0.000929
163.050,0.000925
163.100,0.000921
163.150,0.000917
163.200,0.000914
163.250,0.000910
163.300,0.000906
163.350,0.000902
163.400,0.000899
163.450,0.000895
163.500,0.000891
163.550,0.000888
163.600,0.000884
163.650,0.000880
163.700,0.000876
163.750,0.000873
163.800,0.000869
163.850,0.000865
163.900,0.000861
163.950,0.000858
164.000,0.000854
164.050,0.000850
164.100,0.000846
164.150,0.000842
164.200,0.000838
164.250,0.000835
164.300,0.000831
164.350,0.000827
164.400,0.000823
164.450,0.000819
164.500,0.000815
164.550,0.000811
164.600,0.000807
164.650,0.000803
164.700,0.000799
164.750,0.000795
164.800,0.000791
164.850,0.000787
164.900,0.000783
164.950,0.000779
165.000,0.000775
165.050,0.000771
165.100,0.000766
165.150,0.000762
165.200,0.000758
165.250,0.000754
165.300,0.000750
165.350,0.000746
165.400,0.000742
165.450,0.000738
165.500,0.000734
165.550,0.000730
165.600,0.000726
165.650,0.000722
165.700,0.000718
165.750,0.000713
165.800,0.000709
165.850,0.000705
165.900,0.000701
165.950,0.000697
166.000,0.000692
166.050,0.000688
166.100,0.000684
166.150,0.000680
166.200,0.000676
166.250,0.000671
166.300,0.000667
166.350,0.000663
166.400,0.000659
166.450,0.000655
166.500,0.000650
166.550,0.000646
166.600,0.000642
166.650,0.000638
166.700,0.000633
166.750,0.000629
166.800,0.000625
166.850,0.000621
166.900,0.000616
166.950,0.000612
167.000,0.000608
167.050,0.000604
167.100,0.000599
167.150,0.000595
167.200,0.000591
167.250,0.000587
167.300,0.000583
167.350,0.000578
167.400,0.000574
167.450,0.000570
167.500,0.000566
167.550,0.000561
167.600,0.000557
167.650,0.000553
167.700,0.000549
167.750,0.000544
167.800,0.000540
167.850,0.000536
167.900,0.000531
167.950,0.000527
168.000,0.000523
168.050,0.000518
168.100,0.000514
168.150,0.000510
168.200,0.000505
168.250,0.000501
168.300,0.000497
168.350,0.000492
168.400,0.000488
168.450,0.000484
168.500,0.000479
168.550,0.000475
168.600,0.000471
168.650,0.000466
168.700,0.000462
168.750,0.000457
168.800,0.000453
168.850,0.000449
168.900,0.000444
168.950,0.000440
169.000,0.000435
169.050,0.000431
169.100,0.000427
169.150,0.000422
169.200,0.000418
169.250,0.000413
169.300,0.000409
169.350,0.000405
169.400,0.000400
169.450,0.000396
169.500,0.000392
169.550,0.000387
169.600,0.000383
169.650,0.000378
169.700,0.000374
169.750,0.000370
169.800,0.000365
169.850,0.000361
169.900,0.000357
169.950,0.000352
170.000,0.000348
170.050,0.000344
170.100,0.000339
170.150,0.000335
170.200,0.000331
170.250,0.000326
170.300,0.000322
170.350,0.000318
170.400,0.000313
170.450,0.000309
170.500,0.000305
170.550,0.000300
170.600,0.000296
170.650,0.000292
170.700,0.000288
170.750,0.000283
170.800,0.000279
170.850,0.000275
170.900,0.000271
170.950,0.000266
171.000,0.000262
171.050,0.000258
171.100,0.000254
171.150,0.000250
171.200,0.000245
171.250,0.000241
171.300,0.000237
171.350,0.000233
171.400,0.000228
171.450,0.000224
171.500,0.000220
171.550,0.000216
171.600,0.000212
171.650,0.000207
171.700,0.000203
171.750,0.000199
171.800,0.000195
171.850,0.000191
171.900,0.000186
171.950,0.000182
172.000,0.000178
172.050,0.000174
172.100,0.000170
172.150,0.000165
172.200,0.000161
172.250,0.000157
172.300,0.000153
172.350,0.000149
172.400,0.000144
172.450,0.000140
172.500,0.000136
172.550,0.000132
172.600,0.000128
172.650,0.000123
172.700,0.000119
172.750,0.000115
172.800,0.000111
172.850,0.000106
172.900,0.000102
172.950,0.000098
173.000,0.000094
173.050,0.000090
173.100,0.000085
173.150,0.000081
173.200,0.000077
173.250,0.000073
173.300,0.000069
173.350,0.000064
173.400,0.000060
173.450,0.000056
173.500,0.000052
173.550,0.000048
173.600,0.000044
173.650,0.000039
173.700,0.000035
173.750,0.000031
173.800,0.000027
173.850,0.000023
173.900,0.000019
173.950,0.000015
174.000,0.000011
174.050,0.000006
174.100,0.000002
174.150,-0.000002
174.200,-0.000006
174.250,-0.000010
174.300,-0.000014
174.350,-0.000018
174.400,-0.000022
174.450,-0.000026
174.500,-0.000030
174.550,-0.000034
174.600,-0.000039
174.650,-0.000043
174.700,-0.000047
174.750,-0.000051
174.800,-0.000055
174.850,-0.000059
174.900,-0.000063
174.950,-0.000067
175.000,-0.000071
175.050,-0.000075
175.100,-0.000079
175.150,-0.000083
175.200,-0.000087
175.250,-0.000091
175.300,-0.000095
175.350,-0.000099
175.400,-0.000102
175.450,-0.000106
175.500,-0.000110
175.550,-0.000114
175.600,-0.000118
175.650,-0.000122
175.700,-0.000126
175.750,-0.000130
175.800,-0.000134
175.850,-0.000137
175.900,-0.000141
175.950,-0.000145
176.000,-0.000149
176.050,-0.000153
176.100,-0.000157
176.150,-0.000161
176.200,-0.000164
176.250,-0.000168
176.300,-0.000172
176.350,-0.000176
176.400,-0.000180
176.450,-0.000184
176.500,-0.000187
176.550,-0.000191
176.600,-0.000195
176.650,-0.000199
176.700,-0.000203
176.750,-0.000207
176.800,-0.000210
176.850,-0.000214
176.900,-0.000218
176.950,-0.000222
177.000,-0.000226
177.050,-0.000229
177.100,-0.000233
177.150,-0.000237
177.200,-0.000241
177.250,-0.000244
177.300,-0.000248
177.350,-0.000252
177.400,-0.000256
177.450,-0.000260
177.500,-0.000263
177.550,-0.000267
177.600,-0.000271
177.650,-0.000275
177.700,-0.000278
177.750,-0.000282
177.800,-0.000286
177.850,-0.000290
177.900,-0.000293
177.950,-0.000297
178.000,-0.000301
178.050,-0.000305
178.100,-0.000308
178.150,-0.000312
178.200,-0.000316
178.250,-0.000319
178.300,-0.000323
178.350,-0.000327
178.400,-0.000330
178.450,-0.000334
178.500,-0.000338
178.550,-0.000341
178.600,-0.000345
178.650,-0.000349
178.700,-0.000352
178.750,-0.000356
178.800,-0.000360
178.850,-0.000363
178.900,-0.000367
178.950,-0.000371
179.000,-0.000374
179.050,-0.000378
179.100,-0.000382
179.150,-0.000385
179.200,-0.000389
179.250,-0.000393
179.300,-0.000396
179.350,-0.000400
179.400,-0.000404
179.450,-0.000407
179.500,-0.000411
179.550,-0.000415
179.600,-0.000418
179.650,-0.000422
179.700,-0.000425
179.750,-0.000429
179.800,-0.000433
179.850,-0.000436
179.900,-0.000440
179.950,-0.000443
180.000,-0.000447
180.050,-0.000451
180.100,-0.000454
180.150,-0.000458
180.200,-0.000461
180.250,-0.000465
180.300,-0.000468
180.350,-0.000472
180.400,-0.000476
180.450,-0.000479
180.500,-0.000483
180.550,-0.000486
180.600,-0.000490
180.650,-0.000493
180.700,-0.000497
180.750,-0.000500
180.800,-0.000504
180.850,-0.000507
180.900,-0.000511
180.950,-0.000514
181.000,-0.000518
181.050,-0.000521
181.100,-0.000525
181.150,-0.000528
181.200,-0.000531
181.250,-0.000535
181.300,-0.000538
181.350,-0.000542
181.400,-0.000545
181.450,-0.000548
181.500,-0.000552
181.550,-0.000555
181.600,-0.000558
181.650,-0.000562
181.700,-0.000565
181.750,-0.000569
181.800,-0.000572
181.850,-0.000575
181.900,-0.000579
181.950,-0.000582
182.000,-0.000585
182.050,-0.000589
182.100,-0.000592
182.150,-0.000595
182.200,-0.000599
182.250,-0.000602
182.300,-0.000605
182.350,-0.000609
182.400,-0.000612
182.450,-0.000615
182.500,-0.000619
182.550,-0.000622
182.600,-0.000625
182.650,-0.000629
182.700,-0.000632
182.750,-0.000635
182.800,-0.000639
182.850,-0.000642
182.900,-0.000645
182.950,-0.000649
183.000,-0.000652
183.050,-0.000655
183.100,-0.000659
183.150,-0.000662
183.200,-0.000665
183.250,-0.000669
183.300,-0.000672
183.350,-0.000675
183.400,-0.000678
183.450,-0.000682
183.500,-0.000685
183.550,-0.000688
183.600,-0.000692
183.650,-0.000695
183.700,-0.000698
183.750,-0.000701
183.800,-0.000704
183.850,-0.000708
183.900,-0.000711
183.950,-0.000714
184.000,-0.000717
184.050,-0.000721
184.100,-0.000724
184.150,-0.000727
184.200,-0.000730
184.250,-0.000733
184.300,-0.000737
184.350,-0.000740
184.400,-0.000743
184.450,-0.000746
184.500,-0.000749
184.550,-0.000752
184.600,-0.000755
184.650,-0.000759
184.700,-0.000762
184.750,-0.000765
184.800,-0.000768
184.850,-0.000771
184.900,-0.000774
184.950,-0.000777
185.000,-0.000780
185.050,-0.000783
185.100,-0.000786
185.150,-0.000790
185.200,-0.000793
185.250,-0.000796
185.300,-0.000799
185.350,-0.000802
185.400,-0.000805
185.450,-0.000808
185.500,-0.000811
185.550,-0.000814
185.600,-0.000817
185.650,-0.000820
185.700,-0.000823
185.750,-0.000826
185.800,-0.000829
185.850,-0.000832
185.900,-0.000835
185.950,-0.000838
186.000,-0.000841
186.050,-0.000844
186.100,-0.000848
186.150,-0.000851
186.200,-0.000854
186.250,-0.000857
186.300,-0.000860
186.350,-0.000863
186.400,-0.000866
186.450,-0.000869
186.500,-0.000872
186.550,-0.000875
186.600,-0.000878
186.650,-0.000880
186.700,-0.000883
186.750,-0.000886
186.800,-0.000889
186.850,-0.000892
186.900,-0.000895
186.950,-0.000898
187.000,-0.000901
187.050,-0.000904
187.100,-0.000907
187.150,-0.000910
187.200,-0.000913
187.250,-0.000916
187.300,-0.000919
187.350,-0.000922
187.400,-0.000925
187.450,-0.000928
187.500,-0.000931
187.550,-0.000933
187.600,-0.000936
187.650,-0.000939
187.700,-0.000942
187.750,-0.000945
187.800,-0.000948
187.850,-0.000951
187.900,-0.000953
187.950,-0.000956
188.000,-0.000959
188.050,-0.000962
188.100,-0.000965
188.150,-0.000967
188.200,-0.000970
188.250,-0.000973
188.300,-0.000976
188.350,-0.000979
188.400,-0.000981
188.450,-0.000984
188.500,-0.000987
188.550,-0.000990
188.600,-0.000992
188.650,-0.000995
188.700,-0.000998
188.750,-0.001001
188.800,-0.001003
188.850,-0.001006
188.900,-0.001009
188.950,-0.001012
189.000,-0.001014
189.050,-0.001017
189.100,-0.001020
189.150,-0.001023
189.200,-0.001025
189.250,-0.001028
189.300,-0.001031
189.350,-0.001033
189.400,-0.001036
189.450,-0.001039
189.500,-0.001042
189.550,-0.001044
189.600,-0.001047
189.650,-0.001050
189.700,-0.001052
189.750,-0.001055
189.800,-0.001058
189.850,-0.001060
189.900,-0.001063
189.950,-0.001066
190.000,-0.001068
190.050,-0.001071
190.100,-0.001074
190.150,-0.001076
190.200,-0.001079
190.250,-0.001082
190.300,-0.001084
190.350,-0.001087
190.400,-0.001089
190.450,-0.001092
190.500,-0.001095
190.550,-0.001097
190.600,-0.001100
190.650,-0.001102
190.700,-0.001105
190.750,-0.001107
190.800,-0.001110
190.850,-0.001113
190.900,-0.001115
190.950,-0.001118
191.000,-0.001120
191.050,-0.001123
191.100,-0.001125
191.150,-0.001128
191.200,-0.001130
191.250,-0.001133
191.300,-0.001136
191.350,-0.001138
191.400,-0.001141
191.450,-0.001143
191.500,-0.001146
191.550,-0.001148
191.600,-0.001151
191.650,-0.001153
191.700,-0.001156
191.750,-0.001159
191.800,-0.001161
191.850,-0.001164
191.900,-0.001166
191.950,-0.001169
192.000,-0.001171
192.050,-0.001174
192.100,-0.001176
192.150,-0.001179
192.200,-0.001181
192.250,-0.001184
192.300,-0.001186
192.350,-0.001189
192.400,-0.001191
192.450,-0.001194
192.500,-0.001196
192.550,-0.001199
192.600,-0.001201
192.650,-0.001204
192.700,-0.001206
192.750,-0.001209
192.800,-0.001211
192.850,-0.001214
192.900,-0.001216
192.950,-0.001218
193.000,-0.001221
193.050,-0.001223
193.100,-0.001226
193.150,-0.001228
193.200,-0.001231
193.250,-0.001233
193.300,-0.001235
193.350,-0.001238
193.400,-0.001240
193.450,-0.001243
193.500,-0.001245
193.550,-0.001247
193.600,-0.001250
193.650,-0.001252
193.700,-0.001255
193.750,-0.001257
193.800,-0.001259
193.850,-0.001262
193.900,-0.001264
193.950,-0.001266
194.000,-0.001269
194.050,-0.001271
194.100,-0.001273
194.150,-0.001276
194.200,-0.001278
194.250,-0.001280
194.300,-0.001283
194.350,-0.001285
194.400,-0.001287
194.450,-0.001290
194.500,-0.001292
194.550,-0.001294
194.600,-0.001297
194.650,-0.001299
194.700,-0.001301
194.750,-0.001304
194.800,-0.001306
194.850,-0.001308
194.900,-0.001311
194.950,-0.001313
195.000,-0.001315
195.050,-0.001318
195.100,-0.001320
195.150,-0.001322
195.200,-0.001324
195.250,-0.001327
195.300,-0.001329
195.350,-0.001331
195.400,-0.001333
195.450,-0.001336
195.500,-0.001338
195.550,-0.001340
195.600,-0.001342
195.650,-0.001344
195.700,-0.001347
195.750,-0.001349
195.800,-0.001351
195.850,-0.001353
195.900,-0.001356
195.950,-0.001358
196.000,-0.001360
196.050,-0.001362
196.100,-0.001364
196.150,-0.001367
196.200,-0.001369
196.250,-0.001371
196.300,-0.001373
196.350,-0.001375
196.400,-0.001378
196.450,-0.001380
196.500,-0.001382
196.550,-0.001384
196.600,-0.001386
196.650,-0.001388
196.700,-0.001391
196.750,-0.001393
196.800,-0.001395
196.850,-0.001397
196.900,-0.001399
196.950,-0.001401
197.000,-0.001404
197.050,-0.001406
197.100,-0.001408
197.150,-0.001410
197.200,-0.001412
197.250,-0.001414
197.300,-0.001417
197.350,-0.001419
197.400,-0.001421
197.450,-0.001423
197.500,-0.001425
197.550,-0.001427
197.600,-0.001429
197.650,-0.001432
197.700,-0.001434
197.750,-0.001436
197.800,-0.001438
197.850,-0.001440
197.900,-0.001442
197.950,-0.001444
198.000,-0.001446
198.050,-0.001448
198.100,-0.001451
198.150,-0.001453
198.200,-0.001455
198.250,-0.001457
198.300,-0.001459
198.350,-0.001461
198.400,-0.001463
198.450,-0.001465
198.500,-0.001467
198.550,-0.001469
198.600,-0.001471
198.650,-0.001473
198.700,-0.001475
198.750,-0.001477
198.800,-0.001479
198.850,-0.001482
198.900,-0.001484
198.950,-0.001486
199.000,-0.001488
199.050,-0.001490
199.100,-0.001492
199.150,-0.001494
199.200,-0.001496
199.250,-0.001498
199.300,-0.001500
199.350,-0.001502
199.400,-0.001504
199.450,-0.001506
199.500,-0.001508
199.550,-0.001510
199.600,-0.001512
199.650,-0.001514
199.700,-0.001516
199.750,-0.001518
199.800,-0.001520
199.850,-0.001522
199.900,-0.001524
199.950,-0.001526
200.000,-0.001528
200.050,-0.001530
200.100,-0.001532
200.150,-0.001534
200.200,-0.001536
200.250,-0.001538
200.300,-0.001540
200.350,-0.001542
200.400,-0.001544
200.450,-0.001546
200.500,-0.001548
200.550,-0.001550
200.600,-0.001552
200.650,-0.001554
200.700,-0.001556
200.750,-0.001558
200.800,-0.001560
200.850,-0.001561
200.900,-0.001563
200.950,-0.001565
201.000,-0.001567
201.050,-0.001569
201.100,-0.001571
201.150,-0.001573
201.200,-0.001575
201.250,-0.001577
201.300,-0.001579
201.350,-0.001580
201.400,-0.001582
201.450,-0.001584
201.500,-0.001586
201.550,-0.001588
201.600,-0.001590
201.650,-0.001592
201.700,-0.001594
201.750,-0.001596
201.800,-0.001598
201.850,-0.001599
201.900,-0.001601
201.950,-0.001603
202.000,-0.001605
202.050,-0.001607
202.100,-0.001609
202.150,-0.001611
202.200,-0.001613
202.250,-0.001614
202.300,-0.001616
202.350,-0.001618
202.400,-0.001620
202.450,-0.001622
202.500,-0.001624
202.550,-0.001625
202.600,-0.001627
202.650,-0.001629
202.700,-0.001631
202.750,-0.001633
202.800,-0.001634
202.850,-0.001636
202.900,-0.001638
202.950,-0.001640
203.000,-0.001642
203.050,-0.001644
203.100,-0.001645
203.150,-0.001647
203.200,-0.001649
203.250,-0.001651
203.300,-0.001653
203.350,-0.001654
203.400,-0.001656
203.450,-0.001658
203.500,-0.001660
203.550,-0.001662
203.600,-0.001663
203.650,-0.001665
203.700,-0.001667
203.750,-0.001669
203.800,-0.001670
203.850,-0.001672
203.900,-0.001674
203.950,-0.001676
204.000,-0.001677
204.050,-0.001679
204.100,-0.001681
204.150,-0.001683
204.200,-0.001684
204.250,-0.001686
204.300,-0.001688
204.350,-0.001689
204.400,-0.001691
204.450,-0.001693
204.500,-0.001695
204.550,-0.001696
204.600,-0.001698
204.650,-0.001700
204.700,-0.001701
204.750,-0.001703
204.800,-0.001705
204.850,-0.001706
204.900,-0.001708
204.950,-0.001710
205.000,-0.001711
205.050,-0.001713
205.100,-0.001715
205.150,-0.001716
205.200,-0.001718
205.250,-0.001720
205.300,-0.001722
205.350,-0.001723
205.400,-0.001725
205.450,-0.001726
205.500,-0.001728
205.550,-0.001730
205.600,-0.001731
205.650,-0.001733
205.700,-0.001735
205.750,-0.001736
205.800,-0.001738
205.850,-0.001740
205.900,-0.001741
205.950,-0.001743
206.000,-0.001744
206.050,-0.001746
206.100,-0.001748
206.150,-0.001749
206.200,-0.001751
206.250,-0.001753
206.300,-0.001754
206.350,-0.001756
206.400,-0.001757
206.450,-0.001759
206.500,-0.001760
206.550,-0.001762
206.600,-0.001764
206.650,-0.001765
206.700,-0.001767
206.750,-0.001768
206.800,-0.001770
206.850,-0.001771
206.900,-0.001773
206.950,-0.001775
207.000,-0.001776
207.050,-0.001778
207.100,-0.001779
207.150,-0.001781
207.200,-0.001782
207.250,-0.001784
207.300,-0.001785
207.350,-0.001787
207.400,-0.001789
207.450,-0.001790
207.500,-0.001792
207.550,-0.001793
207.600,-0.001795
207.650,-0.001796
207.700,-0.001798
207.750,-0.001800
207.800,-0.001801
207.850,-0.001803
207.900,-0.001804
207.950,-0.001806
208.000,-0.001807
208.050,-0.001809
208.100,-0.001810
208.150,-0.001812
208.200,-0.001813
208.250,-0.001815
208.300,-0.001816
208.350,-0.001818
208.400,-0.001820
208.450,-0.001821
208.500,-0.001823
208.550,-0.001824
208.600,-0.001826
208.650,-0.001827
208.700,-0.001829
208.750,-0.001830
208.800,-0.001832
208.850,-0.001833
208.900,-0.001835
208.950,-0.001836
209.000,-0.001838
209.050,-0.001839
209.100,-0.001841
209.150,-0.001842
209.200,-0.001844
209.250,-0.001845
209.300,-0.001847
209.350,-0.001848
209.400,-0.001850
209.450,-0.001851
209.500,-0.001853
209.550,-0.001854
209.600,-0.001856
209.650,-0.001857
209.700,-0.001859
209.750,-0.001860
209.800,-0.001862
209.850,-0.001863
209.900,-0.001865
209.950,-0.001866
210.000,-0.001868
210.050,-0.001869
210.100,-0.001871
210.150,-0.001872
210.200,-0.001874
210.250,-0.001875
210.300,-0.001877
210.350,-0.001878
210.400,-0.001880
210.450,-0.001881
210.500,-0.001883
210.550,-0.001884
210.600,-0.001886
210.650,-0.001887
210.700,-0.001889
210.750,-0.001890
210.800,-0.001892
210.850,-0.001893
210.900,-0.001895
210.950,-0.001896
211.000,-0.001897
211.050,-0.001899
211.100,-0.001900
211.150,-0.001902
211.200,-0.001903
211.250,-0.001905
211.300,-0.001906
211.350,-0.001908
211.400,-0.001909
211.450,-0.001911
211.500,-0.001912
211.550,-0.001913
211.600,-0.001915
211.650,-0.001916
211.700,-0.001918
211.750,-0.001919
211.800,-0.001921
211.850,-0.001922
211.900,-0.001924
211.950,-0.001925
212.000,-0.001926
212.050,-0.001928
212.100,-0.001929
212.150,-0.001931
212.200,-0.001932
212.250,-0.001934
212.300,-0.001935
212.350,-0.001936
212.400,-0.001938
212.450,-0.001939
212.500,-0.001941
212.550,-0.001942
212.600,-0.001944
212.650,-0.001945
212.700,-0.001946
212.750,-0.001948
212.800,-0.001949
212.850,-0.001951
212.900,-0.001952
212.950,-0.001953
213.000,-0.001955
213.050,-0.001956
213.100,-0.001958
213.150,-0.001959
213.200,-0.001960
213.250,-0.001962
213.300,-0.001963
213.350,-0.001965
213.400,-0.001966
213.450,-0.001967
213.500,-0.001969
213.550,-0.001970
213.600,-0.001971
213.650,-0.001973
213.700,-0.001974
213.750,-0.001976
213.800,-0.001977
213.850,-0.001978
213.900,-0.001980
213.950,-0.001981
214.000,-0.001982
214.050,-0.001984
214.100,-0.001985
214.150,-0.001986
214.200,-0.001988
214.250,-0.001989
214.300,-0.001991
214.350,-0.001992
214.400,-0.001993
214.450,-0.001995
214.500,-0.001996
214.550,-0.001997
214.600,-0.001999
214.650,-0.002000
214.700,-0.002001
214.750,-0.002003
214.800,-0.002004
214.850,-0.002005
214.900,-0.002007
214.950,-0.002008
215.000,-0.002009
215.050,-0.002011
215.100,-0.002012
215.150,-0.002013
215.200,-0.002015
215.250,-0.002016
215.300,-0.002017
215.350,-0.002019
215.400,-0.002020
215.450,-0.002021
215.500,-0.002023
215.550,-0.002024
215.600,-0.002025
215.650,-0.002027
215.700,-0.002028
215.750,-0.002029
215.800,-0.002031
215.850,-0.002032
215.900,-0.002033
215.950,-0.002035
216.000,-0.002036
216.050,-0.002037
216.100,-0.002039
216.150,-0.002040
216.200,-0.002041
216.250,-0.002042
216.300,-0.002044
216.350,-0.002045
216.400,-0.002046
216.450,-0.002048
216.500,-0.002049
216.550,-0.002050
216.600,-0.002052
216.650,-0.002053
216.700,-0.002054
216.750,-0.002055
216.800,-0.002057
216.850,-0.002058
216.900,-0.002059
216.950,-0.002061
217.000,-0.002062
217.050,-0.002063
217.100,-0.002064
217.150,-0.002066
217.200,-0.002067
217.250,-0.002068
217.300,-0.002069
217.350,-0.002071
217.400,-0.002072
217.450,-0.002073
217.500,-0.002074
217.550,-0.002076
217.600,-0.002077
217.650,-0.002078
217.700,-0.002080
217.750,-0.002081
217.800,-0.002082
217.850,-0.002083
217.900,-0.002084
217.950,-0.002086
218.000,-0.002087
218.050,-0.002088
218.100,-0.002089
218.150,-0.002091
218.200,-0.002092
218.250,-0.002093
218.300,-0.002094
218.350,-0.002096
218.400,-0.002097
218.450,-0.002098
218.500,-0.002099
218.550,-0.002101
218.600,-0.002102
218.650,-0.002103
218.700,-0.002104
218.750,-0.002106
218.800,-0.002107
218.850,-0.002108
218.900,-0.002109
218.950,-0.002110
219.000,-0.002112
219.050,-0.002113
219.100,-0.002114
219.150,-0.002115
219.200,-0.002117
219.250,-0.002118
219.300,-0.002119
219.350,-0.002120
219.400,-0.002121
219.450,-0.002123
219.500,-0.002124
219.550,-0.002125
219.600,-0.002126
219.650,-0.002127
219.700,-0.002129
219.750,-0.002130
219.800,-0.002131
219.850,-0.002132
219.900,-0.002134
219.950,-0.002135
220.000,-0.002136
220.050,-0.002137
220.100,-0.002138
220.150,-0.002140
220.200,-0.002141
220.250,-0.002142
220.300,-0.002143
220.350,-0.002144
220.400,-0.002146
220.450,-0.002147
220.500,-0.002148
220.550,-0.002149
220.600,-0.002151
220.650,-0.002152
220.700,-0.002153
220.750,-0.002154
220.800,-0.002155
220.850,-0.002157
220.900,-0.002158
220.950,-0.002159
221.000,-0.002160
221.050,-0.002162
221.100,-0.002163
221.150,-0.002164
221.200,-0.002165
221.250,-0.002166
221.300,-0.002168
221.350,-0.002169
221.400,-0.002170
221.450,-0.002171
221.500,-0.002173
221.550,-0.002174
221.600,-0.002175
221.650,-0.002176
221.700,-0.002177
221.750,-0.002179
221.800,-0.002180
221.850,-0.002181
221.900,-0.002182
221.950,-0.002183
222.000,-0.002185
222.050,-0.002186
222.100,-0.002187
222.150,-0.002188
222.200,-0.002189
222.250,-0.002190
222.300,-0.002192
222.350,-0.002193
222.400,-0.002194
222.450,-0.002195
222.500,-0.002196
222.550,-0.002197
222.600,-0.002199
222.650,-0.002200
222.700,-0.002201
222.750,-0.002202
222.800,-0.002203
222.850,-0.002204
222.900,-0.002206
222.950,-0.002207
223.000,-0.002208
223.050,-0.002209
223.100,-0.002210
223.150,-0.002211
223.200,-0.002213
223.250,-0.002214
223.300,-0.002215
223.350,-0.002216
223.400,-0.002217
223.450,-0.002218
223.500,-0.002219
223.550,-0.002221
223.600,-0.002222
223.650,-0.002223
223.700,-0.002224
223.750,-0.002225
223.800,-0.002226
223.850,-0.002227
223.900,-0.002229
223.950,-0.002230
224.000,-0.002231
224.050,-0.002232
224.100,-0.002233
224.150,-0.002234
224.200,-0.002235
224.250,-0.002237
224.300,-0.002238
224.350,-0.002239
224.400,-0.002240
224.450,-0.002241
224.500,-0.002242
224.550,-0.002243
224.600,-0.002244
224.650,-0.002245
224.700,-0.002246
224.750,-0.002248
224.800,-0.002249
224.850,-0.002250
224.900,-0.002251
224.950,-0.002252
225.000,-0.002253
225.050,-0.002254
225.100,-0.002255
225.150,-0.002256
225.200,-0.002257
225.250,-0.002259
225.300,-0.002260
225.350,-0.002261
225.400,-0.002262
225.450,-0.002263
225.500,-0.002264
225.550,-0.002265
225.600,-0.002266
225.650,-0.002267
225.700,-0.002268
225.750,-0.002270
225.800,-0.002271
225.850,-0.002272
225.900,-0.002273
225.950,-0.002274
226.000,-0.002275
226.050,-0.002276
226.100,-0.002277
226.150,-0.002278
226.200,-0.002279
226.250,-0.002281
226.300,-0.002282
226.350,-0.002283
226.400,-0.002284
226.450,-0.002285
226.500,-0.002286
226.550,-0.002287
226.600,-0.002288
226.650,-0.002289
226.700,-0.002290
226.750,-0.002292
226.800,-0.002293
226.850,-0.002294
226.900,-0.002295
226.950,-0.002296
227.000,-0.002297
227.050,-0.002298
227.100,-0.002299
227.150,-0.002300
227.200,-0.002301
227.250,-0.002303
227.300,-0.002304
227.350,-0.002305
227.400,-0.002306
227.450,-0.002307
227.500,-0.002308
227.550,-0.002309
227.600,-0.002310
227.650,-0.002311
227.700,-0.002312
227.750,-0.002313
227.800,-0.002314
227.850,-0.002316
227.900,-0.002317
227.950,-0.002318
228.000,-0.002319
228.050,-0.002320
228.100,-0.002321
228.150,-0.002322
228.200,-0.002323
228.250,-0.002324
228.300,-0.002325
228.350,-0.002326
228.400,-0.002327
228.450,-0.002329
228.500,-0.002330
228.550,-0.002331
228.600,-0.002332
228.650,-0.002333
228.700,-0.002334
228.750,-0.002335
228.800,-0.002336
228.850,-0.002337
228.900,-0.002338
228.950,-0.002340
229.000,-0.002341
229.050,-0.002342
229.100,-0.002343
229.150,-0.002344
229.200,-0.002345
229.250,-0.002346
229.300,-0.002347
229.350,-0.002348
229.400,-0.002349
229.450,-0.002351
229.500,-0.002352
229.550,-0.002353
229.600,-0.002354
229.650,-0.002355
229.700,-0.002356
229.750,-0.002357
229.800,-0.002358
229.850,-0.002359
229.900,-0.002360
229.950,-0.002361
230.000,-0.002362
230.050,-0.002363
230.100,-0.002365
230.150,-0.002366
230.200,-0.002367
230.250,-0.002368
230.300,-0.002369
230.350,-0.002370
230.400,-0.002371
230.450,-0.002372
230.500,-0.002373
230.550,-0.002374
230.600,-0.002375
230.650,-0.002377
230.700,-0.002378
230.750,-0.002379
230.800,-0.002380
230.850,-0.002381
230.900,-0.002382
230.950,-0.002383
231.000,-0.002384
231.050,-0.002385
231.100,-0.002386
231.150,-0.002387
231.200,-0.002389
231.250,-0.002390
231.300,-0.002391
231.350,-0.002392
231.400,-0.002393
231.450,-0.002394
231.500,-0.002395
231.550,-0.002396
231.600,-0.002397
231.650,-0.002398
231.700,-0.002399
231.750,-0.002400
231.800,-0.002402
231.850,-0.002403
231.900,-0.002404
231.950,-0.002405
232.000,-0.002406
232.050,-0.002407
232.100,-0.002408
232.150,-0.002409
232.200,-0.002410
232.250,-0.002411
232.300,-0.002412
232.350,-0.002413
232.400,-0.002414
232.450,-0.002415
232.500,-0.002417
232.550,-0.002418
232.600,-0.002419
232.650,-0.002420
232.700,-0.002421
232.750,-0.002422
232.800,-0.002423
232.850,-0.002424
232.900,-0.002425
232.950,-0.002426
233.000,-0.002427
233.050,-0.002428
233.100,-0.002429
233.150,-0.002431
233.200,-0.002432
233.250,-0.002433
233.300,-0.002434
233.350,-0.002435
233.400,-0.002436
233.450,-0.002437
233.500,-0.002438
233.550,-0.002439
233.600,-0.002440
233.650,-0.002441
233.700,-0.002443
233.750,-0.002444
233.800,-0.002445
233.850,-0.002446
233.900,-0.002447
233.950,-0.002448
234.000,-0.002449
234.050,-0.002450
234.100,-0.002451
234.150,-0.002452
234.200,-0.002453
234.250,-0.002454
234.300,-0.002456
234.350,-0.002457
234.400,-0.002458
234.450,-0.002459
234.500,-0.002460
234.550,-0.002461
234.600,-0.002462
234.650,-0.002463
234.700,-0.002464
234.750,-0.002465
234.800,-0.002467
234.850,-0.002468
234.900,-0.002469
234.950,-0.002470
235.000,-0.002471
235.050,-0.002472
235.100,-0.002473
235.150,-0.002474
235.200,-0.002475
235.250,-0.002477
235.300,-0.002478
235.350,-0.002479
235.400,-0.002480
235.450,-0.002481
235.500,-0.002482
235.550,-0.002483
235.600,-0.002484
235.650,-0.002485
235.700,-0.002487
235.750,-0.002488
235.800,-0.002489
235.850,-0.002490
235.900,-0.002491
235.950,-0.002492
236.000,-0.002493
236.050,-0.002494
236.100,-0.002495
236.150,-0.002496
236.200,-0.002497
236.250,-0.002499
236.300,-0.002500
236.350,-0.002501
236.400,-0.002502
236.450,-0.002503
236.500,-0.002504
236.550,-0.002505
236.600,-0.002506
236.650,-0.002507
236.700,-0.002508
236.750,-0.002509
236.800,-0.002510
236.850,-0.002511
236.900,-0.002512
236.950,-0.002513
237.000,-0.002515
237.050,-0.002516
237.100,-0.002517
237.150,-0.002518
237.200,-0.002519
237.250,-0.002520
237.300,-0.002521
237.350,-0.002522
237.400,-0.002523
237.450,-0.002524
237.500,-0.002525
237.550,-0.002526
237.600,-0.002527
237.650,-0.002528
237.700,-0.002530
237.750,-0.002531
237.800,-0.002532
237.850,-0.002533
237.900,-0.002534
237.950,-0.002535
238.000,-0.002536
238.050,-0.002537
238.100,-0.002538
238.150,-0.002539
238.200,-0.002540
238.250,-0.002541
238.300,-0.002542
238.350,-0.002543
238.400,-0.002544
238.450,-0.002546
238.500,-0.002547
238.550,-0.002548
238.600,-0.002549
238.650,-0.002550
238.700,-0.002551
238.750,-0.002552
238.800,-0.002553
238.850,-0.002554
238.900,-0.002555
238.950,-0.002556
239.000,-0.002557
239.050,-0.002558
239.100,-0.002559
239.150,-0.002561
239.200,-0.002562
239.250,-0.002563
239.300,-0.002564
239.350,-0.002565
239.400,-0.002566
239.450,-0.002567
239.500,-0.002568
239.550,-0.002569
239.600,-0.002570
239.650,-0.002571
239.700,-0.002572
239.750,-0.002574
239.800,-0.002575
239.850,-0.002576
239.900,-0.002577
239.950,-0.002578
240.000,-0.002579
240.050,-0.002580
240.100,-0.002581
240.150,-0.002582
240.200,-0.002583
240.250,-0.002584
240.300,-0.002586
240.350,-0.002587
240.400,-0.002588
240.450,-0.002589
240.500,-0.002590
240.550,-0.002591
240.600,-0.002592
240.650,-0.002593
240.700,-0.002594
240.750,-0.002596
240.800,-0.002597
240.850,-0.002598
240.900,-0.002599
240.950,-0.002600
241.000,-0.002601
241.050,-0.002602
241.100,-0.002603
241.150,-0.002604
241.200,-0.002606
241.250,-0.002607
241.300,-0.002608
241.350,-0.002609
241.400,-0.002610
241.450,-0.002611
241.500,-0.002612
241.550,-0.002613
241.600,-0.002615
241.650,-0.002616
241.700,-0.002617
241.750,-0.002618
241.800,-0.002619
241.850,-0.002620
241.900,-0.002621
241.950,-0.002622
242.000,-0.002624
242.050,-0.002625
242.100,-0.002626
242.150,-0.002627
242.200,-0.002628
242.250,-0.002629
242.300,-0.002630
242.350,-0.002632
242.400,-0.002633
242.450,-0.002634
242.500,-0.002635
242.550,-0.002636
242.600,-0.002637
242.650,-0.002638
242.700,-0.002639
242.750,-0.002641
242.800,-0.002642
242.850,-0.002643
242.900,-0.002644
242.950,-0.002645
243.000,-0.002646
243.050,-0.002647
243.100,-0.002648
243.150,-0.002650
243.200,-0.002651
243.250,-0.002652
243.300,-0.002653
243.350,-0.002654
243.400,-0.002655
243.450,-0.002656
243.500,-0.002658
243.550,-0.002659
243.600,-0.002660
243.650,-0.002661
243.700,-0.002662
243.750,-0.002663
243.800,-0.002664
243.850,-0.002666
243.900,-0.002667
243.950,-0.002668
244.000,-0.002669
244.050,-0.002670
244.100,-0.002671
244.150,-0.002673
244.200,-0.002674
244.250,-0.002675
244.300,-0.002676
244.350,-0.002677
244.400,-0.002678
244.450,-0.002680
244.500,-0.002681
244.550,-0.002682
244.600,-0.002683
244.650,-0.002684
244.700,-0.002685
244.750,-0.002687
244.800,-0.002688
244.850,-0.002689
244.900,-0.002690
244.950,-0.002691
245.000,-0.002693
245.050,-0.002694
245.100,-0.002695
245.150,-0.002696
245.200,-0.002697
245.250,-0.002699
245.300,-0.002700
245.350,-0.002701
245.400,-0.002702
245.450,-0.002704
245.500,-0.002705
245.550,-0.002706
245.600,-0.002707
245.650,-0.002709
245.700,-0.002710
245.750,-0.002711
245.800,-0.002712
245.850,-0.002713
245.900,-0.002715
245.950,-0.002716
246.000,-0.002717
246.050,-0.002718
246.100,-0.002720
246.150,-0.002721
246.200,-0.002722
246.250,-0.002723
246.300,-0.002725
246.350,-0.002726
246.400,-0.002727
246.450,-0.002728
246.500,-0.002730
246.550,-0.002731
246.600,-0.002732
246.650,-0.002733
246.700,-0.002735
246.750,-0.002736
246.800,-0.002737
246.850,-0.002738
246.900,-0.002740
246.950,-0.002741
247.000,-0.002742
247.050,-0.002743
247.100,-0.002744
247.150,-0.002746
247.200,-0.002747
247.250,-0.002748
247.300,-0.002750
247.350,-0.002751
247.400,-0.002752
247.450,-0.002753
247.500,-0.002755
247.550,-0.002756
247.600,-0.002757
247.650,-0.002758
247.700,-0.002760
247.750,-0.002761
247.800,-0.002762
247.850,-0.002763
247.900,-0.002765
247.950,-0.002766
248.000,-0.002767
248.050,-0.002769
248.100,-0.002770
248.150,-0.002771
248.200,-0.002772
248.250,-0.002774
248.300,-0.002775
248.350,-0.002776
248.400,-0.002778
248.450,-0.002779
248.500,-0.002780
248.550,-0.002782
248.600,-0.002783
248.650,-0.002784
248.700,-0.002786
248.750,-0.002787
248.800,-0.002788
248.850,-0.002790
248.900,-0.002791
248.950,-0.002792
249.000,-0.002794
249.050,-0.002795
249.100,-0.002796
249.150,-0.002798
249.200,-0.002799
249.250,-0.002800
249.300,-0.002802
249.350,-0.002803
249.400,-0.002804
249.450,-0.002806
249.500,-0.002807
249.550,-0.002808
249.600,-0.002810
249.650,-0.002811
249.700,-0.002812
249.750,-0.002814
249.800,-0.002815
249.850,-0.002816
249.900,-0.002818
249.950,-0.002819
250.000,-0.002820
250.050,-0.002822
250.100,-0.002823
250.150,-0.002824
250.200,-0.002826
250.250,-0.002827
250.300,-0.002828
250.350,-0.002830
250.400,-0.002831
250.450,-0.002832
250.500,-0.002834
250.550,-0.002835
250.600,-0.002837
250.650,-0.002838
250.700,-0.002839
250.750,-0.002841
250.800,-0.002842
250.850,-0.002843
250.900,-0.002845
250.950,-0.002846
251.000,-0.002848
251.050,-0.002849
251.100,-0.002850
251.150,-0.002852
251.200,-0.002853
251.250,-0.002855
251.300,-0.002856
251.350,-0.002858
251.400,-0.002859
251.450,-0.002860
251.500,-0.002862
251.550,-0.002863
251.600,-0.002865
251.650,-0.002866
251.700,-0.002868
251.750,-0.002869
251.800,-0.002870
251.850,-0.002872
251.900,-0.002873
251.950,-0.002875
252.000,-0.002876
252.050,-0.002878
252.100,-0.002879
252.150,-0.002880
252.200,-0.002882
252.250,-0.002883
252.300,-0.002885
252.350,-0.002886
252.400,-0.002888
252.450,-0.002889
252.500,-0.002891
252.550,-0.002892
252.600,-0.002894
252.650,-0.002895
252.700,-0.002897
252.750,-0.002898
252.800,-0.002900
252.850,-0.002901
252.900,-0.002903
252.950,-0.002904
253.000,-0.002906
253.050,-0.002907
253.100,-0.002909
253.150,-0.002910
253.200,-0.002912
253.250,-0.002913
253.300,-0.002915
253.350,-0.002916
253.400,-0.002918
253.450,-0.002919
253.500,-0.002921
253.550,-0.002922
253.600,-0.002924
253.650,-0.002926
253.700,-0.002927
253.750,-0.002929
253.800,-0.002930
253.850,-0.002932
253.900,-0.002933
253.950,-0.002935
254.000,-0.002936
254.050,-0.002938
254.100,-0.002940
254.150,-0.002941
254.200,-0.002943
254.250,-0.002944
254.300,-0.002946
254.350,-0.002947
254.400,-0.002949
254.450,-0.002951
254.500,-0.002952
254.550,-0.002954
254.600,-0.002955
254.650,-0.002957
254.700,-0.002959
254.750,-0.002960
254.800,-0.002962
254.850,-0.002963
254.900,-0.002965
254.950,-0.002966
255.000,-0.002968
255.050,-0.002970
255.100,-0.002971
255.150,-0.002973
255.200,-0.002975
255.250,-0.002976
255.300,-0.002978
255.350,-0.002979
255.400,-0.002981
255.450,-0.002983
255.500,-0.002984
255.550,-0.002986
255.600,-0.002988
255.650,-0.002989
255.700,-0.002991
255.750,-0.002992
255.800,-0.002994
255.850,-0.002996
255.900,-0.002997
255.950,-0.002999
256.000,-0.003001
256.050,-0.003002
256.100,-0.003004
256.150,-0.003006
256.200,-0.003008
256.250,-0.003009
256.300,-0.003011
256.350,-0.003013
256.400,-0.003014
256.450,-0.003016
256.500,-0.003018
256.550,-0.003020
256.600,-0.003021
256.650,-0.003023
256.700,-0.003025
256.750,-0.003026
256.800,-0.003028
256.850,-0.003030
256.900,-0.003032
256.950,-0.003033
257.000,-0.003035
257.050,-0.003037
257.100,-0.003039
257.150,-0.003040
257.200,-0.003042
257.250,-0.003044
257.300,-0.003046
257.350,-0.003048
257.400,-0.003049
257.450,-0.003051
257.500,-0.003053
257.550,-0.003055
257.600,-0.003057
257.650,-0.003058
257.700,-0.003060
257.750,-0.003062
257.800,-0.003064
257.850,-0.003066
257.900,-0.003067
257.950,-0.003069
258.000,-0.003071
258.050,-0.003073
258.100,-0.003075
258.150,-0.003077
258.200,-0.003078
258.250,-0.003080
258.300,-0.003082
258.350,-0.003084
258.400,-0.003086
258.450,-0.003088
258.500,-0.003089
258.550,-0.003091
258.600,-0.003093
258.650,-0.003095
258.700,-0.003097
258.750,-0.003099
258.800,-0.003101
258.850,-0.003103
258.900,-0.003104
258.950,-0.003106
259.000,-0.003108
259.050,-0.003110
259.100,-0.003112
259.150,-0.003114
259.200,-0.003116
259.250,-0.003118
259.300,-0.003120
259.350,-0.003122
259.400,-0.003123
259.450,-0.003125
259.500,-0.003127
259.550,-0.003129
259.600,-0.003131
259.650,-0.003133
259.700,-0.003135
259.750,-0.003137
259.800,-0.003139
259.850,-0.003141
259.900,-0.003143
259.950,-0.003145
260.000,-0.003147
260.050,-0.003149
260.100,-0.003151
260.150,-0.003153
260.200,-0.003155
260.250,-0.003157
260.300,-0.003159
260.350,-0.003161
260.400,-0.003163
260.450,-0.003165
260.500,-0.003167
260.550,-0.003169
260.600,-0.003171
260.650,-0.003173
260.700,-0.003175
260.750,-0.003177
260.800,-0.003179
260.850,-0.003181
260.900,-0.003183
260.950,-0.003185
261.000,-0.003187
261.050,-0.003189
261.100,-0.003191
261.150,-0.003193
261.200,-0.003195
261.250,-0.003197
261.300,-0.003200
261.350,-0.003202
261.400,-0.003204
261.450,-0.003206
261.500,-0.003208
261.550,-0.003210
261.600,-0.003212
261.650,-0.003214
261.700,-0.003216
261.750,-0.003219
261.800,-0.003221
261.850,-0.003223
261.900,-0.003225
261.950,-0.003227
262.000,-0.003229
262.050,-0.003231
262.100,-0.003234
262.150,-0.003236
262.200,-0.003238
262.250,-0.003240
262.300,-0.003242
262.350,-0.003244
262.400,-0.003247
262.450,-0.003249
262.500,-0.003251
262.550,-0.003253
262.600,-0.003255
262.650,-0.003258
262.700,-0.003260
262.750,-0.003262
262.800,-0.003264
262.850,-0.003267
262.900,-0.003269
262.950,-0.003271
263.000,-0.003273
263.050,-0.003276
263.100,-0.003278
263.150,-0.003280
263.200,-0.003282
263.250,-0.003285
263.300,-0.003287
263.350,-0.003289
263.400,-0.003292
263.450,-0.003294
263.500,-0.003296
263.550,-0.003299
263.600,-0.003301
263.650,-0.003303
263.700,-0.003306
263.750,-0.003308
263.800,-0.003310
263.850,-0.003313
263.900,-0.003315
263.950,-0.003317
264.000,-0.003320
264.050,-0.003322
264.100,-0.003324
264.150,-0.003327
264.200,-0.003329
264.250,-0.003332
264.300,-0.003334
264.350,-0.003336
264.400,-0.003339
264.450,-0.003341
264.500,-0.003344
264.550,-0.003346
264.600,-0.003348
264.650,-0.003351
264.700,-0.003353
264.750,-0.003356
264.800,-0.003358
264.850,-0.003361
264.900,-0.003363
264.950,-0.003365
265.000,-0.003368
265.050,-0.003370
265.100,-0.003373
265.150,-0.003375
265.200,-0.003378
265.250,-0.003380
265.300,-0.003383
265.350,-0.003385
265.400,-0.003388
265.450,-0.003390
265.500,-0.003393
265.550,-0.003395
265.600,-0.003398
265.650,-0.003401
265.700,-0.003403
265.750,-0.003406
265.800,-0.003408
265.850,-0.003411
265.900,-0.003413
265.950,-0.003416
266.000,-0.003418
266.050,-0.003421
266.100,-0.003424
266.150,-0.003426
266.200,-0.003429
266.250,-0.003432
266.300,-0.003434
266.350,-0.003437
266.400,-0.003440
266.450,-0.003442
266.500,-0.003445
266.550,-0.003448
266.600,-0.003450
266.650,-0.003453
266.700,-0.003456
266.750,-0.003458
266.800,-0.003461
266.850,-0.003464
266.900,-0.003467
266.950,-0.003469
267.000,-0.003472
267.050,-0.003475
267.100,-0.003477
267.150,-0.003480
267.200,-0.003483
267.250,-0.003486
267.300,-0.003489
267.350,-0.003491
267.400,-0.003494
267.450,-0.003497
267.500,-0.003500
267.550,-0.003503
267.600,-0.003505
267.650,-0.003508
267.700,-0.003511
267.750,-0.003514
267.800,-0.003517
267.850,-0.003520
267.900,-0.003522
267.950,-0.003525
268.000,-0.003528
268.050,-0.003531
268.100,-0.003534
268.150,-0.003537
268.200,-0.003540
268.250,-0.003543
268.300,-0.003546
268.350,-0.003549
268.400,-0.003551
268.450,-0.003554
268.500,-0.003557
268.550,-0.003560
268.600,-0.003563
268.650,-0.003566
268.700,-0.003569
268.750,-0.003572
268.800,-0.003575
268.850,-0.003578
268.900,-0.003581
268.950,-0.003584
269.000,-0.003587
269.050,-0.003590
269.100,-0.003593
269.150,-0.003596
269.200,-0.003599
269.250,-0.003602
269.300,-0.003606
269.350,-0.003609
269.400,-0.003612
269.450,-0.003615
269.500,-0.003618
269.550,-0.003621
269.600,-0.003624
269.650,-0.003627
269.700,-0.003630
269.750,-0.003634
269.800,-0.003637
269.850,-0.003640
269.900,-0.003643
269.950,-0.003646
270.000,-0.003649
270.050,-0.003653
270.100,-0.003656
270.150,-0.003659
270.200,-0.003662
270.250,-0.003665
270.300,-0.003669
270.350,-0.003672
270.400,-0.003675
270.450,-0.003678
270.500,-0.003682
270.550,-0.003685
270.600,-0.003688
270.650,-0.003691
270.700,-0.003695
270.750,-0.003698
270.800,-0.003701
270.850,-0.003704
270.900,-0.003708
270.950,-0.003711
271.000,-0.003714
271.050,-0.003718
271.100,-0.003721
271.150,-0.003724
271.200,-0.003728
271.250,-0.003731
271.300,-0.003735
271.350,-0.003738
271.400,-0.003741
271.450,-0.003745
271.500,-0.003748
271.550,-0.003752
271.600,-0.003755
271.650,-0.003758
271.700,-0.003762
271.750,-0.003765
271.800,-0.003769
271.850,-0.003772
271.900,-0.003776
271.950,-0.003779
272.000,-0.003783
272.050,-0.003786
272.100,-0.003790
272.150,-0.003793
272.200,-0.003797
272.250,-0.003800
272.300,-0.003804
272.350,-0.003807
272.400,-0.003811
272.450,-0.003815
272.500,-0.003818
272.550,-0.003822
272.600,-0.003825
272.650,-0.003829
272.700,-0.003832
272.750,-0.003836
272.800,-0.003840
272.850,-0.003843
272.900,-0.003847
272.950,-0.003851
273.000,-0.003854
273.050,-0.003858
273.100,-0.003862
273.150,-0.003865
273.200,-0.003869
273.250,-0.003873
273.300,-0.003876
273.350,-0.003880
273.400,-0.003884
273.450,-0.003888
273.500,-0.003891
273.550,-0.003895
273.600,-0.003899
273.650,-0.003903
273.700,-0.003907
273.750,-0.003910
273.800,-0.003914
273.850,-0.003918
273.900,-0.003922
273.950,-0.003926
274.000,-0.003929
274.050,-0.003933
274.100,-0.003937
274.150,-0.003941
274.200,-0.003945
274.250,-0.003949
274.300,-0.003953
274.350,-0.003957
274.400,-0.003960
274.450,-0.003964
274.500,-0.003968
274.550,-0.003972
274.600,-0.003976
274.650,-0.003980
274.700,-0.003984
274.750,-0.003988
274.800,-0.003992
274.850,-0.003996
274.900,-0.004000
274.950,-0.004004
275.000,-0.004008
275.050,-0.004012
275.100,-0.004016
275.150,-0.004020
275.200,-0.004024
275.250,-0.004028
275.300,-0.004032
275.350,-0.004036
275.400,-0.004040
275.450,-0.004044
275.500,-0.004048
275.550,-0.004052
275.600,-0.004056
275.650,-0.004060
275.700,-0.004065
275.750,-0.004069
275.800,-0.004073
275.850,-0.004077
275.900,-0.004081
275.950,-0.004085
276.000,-0.004089
276.050,-0.004094
276.100,-0.004098
276.150,-0.004102
276.200,-0.004106
276.250,-0.004110
276.300,-0.004114
276.350,-0.004119
276.400,-0.004123
276.450,-0.004127
276.500,-0.004131
276.550,-0.004136
276.600,-0.004140
276.650,-0.004144
276.700,-0.004148
276.750,-0.004153
276.800,-0.004157
276.850,-0.004161
276.900,-0.004165
276.950,-0.004170
277.000,-0.004174
277.050,-0.004178
277.100,-0.004183
277.150,-0.004187
277.200,-0.004191
277.250,-0.004195
277.300,-0.004200
277.350,-0.004204
277.400,-0.004208
277.450,-0.004213
277.500,-0.004217
277.550,-0.004222
277.600,-0.004226
277.650,-0.004230
277.700,-0.004235
277.750,-0.004239
277.800,-0.004244
277.850,-0.004248
277.900,-0.004252
277.950,-0.004257
278.000,-0.004261
278.050,-0.004266
278.100,-0.004270
278.150,-0.004274
278.200,-0.004279
278.250,-0.004283
278.300,-0.004288
278.350,-0.004292
278.400,-0.004297
278.450,-0.004301
278.500,-0.004306
278.550,-0.004310
278.600,-0.004315
278.650,-0.004319
278.700,-0.004324
278.750,-0.004328
278.800,-0.004333
278.850,-0.004337
278.900,-0.004342
278.950,-0.004346
279.000,-0.004351
279.050,-0.004355
279.100,-0.004360
279.150,-0.004364
279.200,-0.004369
279.250,-0.004373
279.300,-0.004378
279.350,-0.004382
279.400,-0.004387
279.450,-0.004391
279.500,-0.004396
279.550,-0.004401
279.600,-0.004405
279.650,-0.004410
279.700,-0.004414
279.750,-0.004419
279.800,-0.004423
279.850,-0.004428
279.900,-0.004432
279.950,-0.004437
280.000,-0.004442
280.050,-0.004446
280.100,-0.004451
280.150,-0.004455
280.200,-0.004460
280.250,-0.004464
280.300,-0.004469
280.350,-0.004474
280.400,-0.004478
280.450,-0.004483
280.500,-0.004487
280.550,-0.004492
280.600,-0.004496
280.650,-0.004501
280.700,-0.004506
280.750,-0.004510
280.800,-0.004515
280.850,-0.004519
280.900,-0.004524
280.950,-0.004528
281.000,-0.004533
281.050,-0.004538
281.100,-0.004542
281.150,-0.004547
281.200,-0.004551
281.250,-0.004556
281.300,-0.004560
281.350,-0.004565
281.400,-0.004569
281.450,-0.004574
281.500,-0.004579
281.550,-0.004583
281.600,-0.004588
281.650,-0.004592
281.700,-0.004597
281.750,-0.004601
281.800,-0.004606
281.850,-0.004610
281.900,-0.004615
281.950,-0.004619
282.000,-0.004624
282.050,-0.004628
282.100,-0.004633
282.150,-0.004637
282.200,-0.004642
282.250,-0.004646
282.300,-0.004651
282.350,-0.004655
282.400,-0.004660
282.450,-0.004664
282.500,-0.004669
282.550,-0.004673
282.600,-0.004677
282.650,-0.004682
282.700,-0.004686
282.750,-0.004691
282.800,-0.004695
282.850,-0.004700
282.900,-0.004704
282.950,-0.004708
283.000,-0.004713
283.050,-0.004717
283.100,-0.004722
283.150,-0.004726
283.200,-0.004730
283.250,-0.004735
283.300,-0.004739
283.350,-0.004743
283.400,-0.004748
283.450,-0.004752
283.500,-0.004756
283.550,-0.004761
283.600,-0.004765
283.650,-0.004769
283.700,-0.004774
283.750,-0.004778
283.800,-0.004782
283.850,-0.004787
283.900,-0.004791
283.950,-0.004795
284.000,-0.004799
284.050,-0.004804
284.100,-0.004808
284.150,-0.004812
284.200,-0.004816
284.250,-0.004821
284.300,-0.004825
284.350,-0.004829
284.400,-0.004833
284.450,-0.004837
284.500,-0.004842
284.550,-0.004846
284.600,-0.004850
284.650,-0.004854
284.700,-0.004858
284.750,-0.004862
284.800,-0.004867
284.850,-0.004871
284.900,-0.004875
284.950,-0.004879
285.000,-0.004883
285.050,-0.004887
285.100,-0.004891
285.150,-0.004895
285.200,-0.004899
285.250,-0.004904
285.300,-0.004908
285.350,-0.004912
285.400,-0.004916
285.450,-0.004920
285.500,-0.004924
285.550,-0.004928
285.600,-0.004932
285.650,-0.004936
285.700,-0.004940
285.750,-0.004944
285.800,-0.004948
285.850,-0.004951
285.900,-0.004955
285.950,-0.004959
286.000,-0.004963
286.050,-0.004967
286.100,-0.004971
286.150,-0.004975
286.200,-0.004979
286.250,-0.004983
286.300,-0.004986
286.350,-0.004990
286.400,-0.004994
286.450,-0.004998
286.500,-0.005002
286.550,-0.005006
286.600,-0.005009
286.650,-0.005013
286.700,-0.005017
286.750,-0.005021
286.800,-0.005024
286.850,-0.005028
286.900,-0.005032
286.950,-0.005036
287.000,-0.005039
287.050,-0.005043
287.100,-0.005047
287.150,-0.005050
287.200,-0.005054
287.250,-0.005058
287.300,-0.005061
287.350,-0.005065
287.400,-0.005069
287.450,-0.005072
287.500,-0.005076
287.550,-0.005080
287.600,-0.005083
287.650,-0.005087
287.700,-0.005090
287.750,-0.005094
287.800,-0.005098
287.850,-0.005101
287.900,-0.005105
287.950,-0.005108
288.000,-0.005112
288.050,-0.005115
288.100,-0.005119
288.150,-0.005122
288.200,-0.005126
288.250,-0.005129
288.300,-0.005133
288.350,-0.005136
288.400,-0.005140
288.450,-0.005143
288.500,-0.005147
288.550,-0.005150
288.600,-0.005153
288.650,-0.005157
288.700,-0.005160
288.750,-0.005164
288.800,-0.005167
288.850,-0.005170
288.900,-0.005174
288.950,-0.005177
289.000,-0.005181
289.050,-0.005184
289.100,-0.005187
289.150,-0.005191
289.200,-0.005194
289.250,-0.005197
289.300,-0.005201
289.350,-0.005204
289.400,-0.005207
289.450,-0.005210
289.500,-0.005214
289.550,-0.005217
289.600,-0.005220
289.650,-0.005223
289.700,-0.005227
289.750,-0.005230
289.800,-0.005233
289.850,-0.005236
289.900,-0.005240
289.950,-0.005243
290.000,-0.005246
290.050,-0.005249
290.100,-0.005252
290.150,-0.005255
290.200,-0.005259
290.250,-0.005262
290.300,-0.005265
290.350,-0.005268
290.400,-0.005271
290.450,-0.005274
290.500,-0.005277
290.550,-0.005281
290.600,-0.005284
290.650,-0.005287
290.700,-0.005290
290.750,-0.005293
290.800,-0.005296
290.850,-0.005299
290.900,-0.005302
290.950,-0.005305
291.000,-0.005308
291.050,-0.005311
291.100,-0.005314
291.150,-0.005317
291.200,-0.005320
291.250,-0.005323
291.300,-0.005326
291.350,-0.005329
291.400,-0.005332
291.450,-0.005335
291.500,-0.005338
291.550,-0.005341
291.600,-0.005344
291.650,-0.005347
291.700,-0.005350
291.750,-0.005353
291.800,-0.005356
291.850,-0.005359
291.900,-0.005362
291.950,-0.005365
292.000,-0.005368
292.050,-0.005371
292.100,-0.005374
292.150,-0.005377
292.200,-0.005380
292.250,-0.005383
292.300,-0.005385
292.350,-0.005388
292.400,-0.005391
292.450,-0.005394
292.500,-0.005397
292.550,-0.005400
292.600,-0.005403
292.650,-0.005406
292.700,-0.005408
292.750,-0.005411
292.800,-0.005414
292.850,-0.005417
292.900,-0.005420
292.950,-0.005423
293.000,-0.005426
293.050,-0.005428
293.100,-0.005431
293.150,-0.005434
293.200,-0.005437
293.250,-0.005440
293.300,-0.005442
293.350,-0.005445
293.400,-0.005448
293.450,-0.005451
293.500,-0.005454
293.550,-0.005456
293.600,-0.005459
293.650,-0.005462
293.700,-0.005465
293.750,-0.005468
293.800,-0.005470
293.850,-0.005473
293.900,-0.005476
293.950,-0.005479
294.000,-0.005481
294.050,-0.005484
294.100,-0.005487
294.150,-0.005490
294.200,-0.005492
294.250,-0.005495
294.300,-0.005498
294.350,-0.005501
294.400,-0.005503
294.450,-0.005506
294.500,-0.005509
294.550,-0.005512
294.600,-0.005514
294.650,-0.005517
294.700,-0.005520
294.750,-0.005522
294.800,-0.005525
294.850,-0.005528
294.900,-0.005531
294.950,-0.005533
295.000,-0.005536
295.050,-0.005539
295.100,-0.005541
295.150,-0.005544
295.200,-0.005547
295.250,-0.005549
295.300,-0.005552
295.350,-0.005555
295.400,-0.005558
295.450,-0.005560
295.500,-0.005563
295.550,-0.005566
295.600,-0.005568
295.650,-0.005571
295.700,-0.005574
295.750,-0.005576
295.800,-0.005579
295.850,-0.005582
295.900,-0.005584
295.950,-0.005587
296.000,-0.005590
296.050,-0.005592
296.100,-0.005595
296.150,-0.005598
296.200,-0.005600
296.250,-0.005603
296.300,-0.005606
296.350,-0.005608
296.400,-0.005611
296.450,-0.005614
296.500,-0.005616
296.550,-0.005619
296.600,-0.005622
296.650,-0.005624
296.700,-0.005627
296.750,-0.005630
296.800,-0.005632
296.850,-0.005635
296.900,-0.005638
296.950,-0.005640
297.000,-0.005643
297.050,-0.005646
297.100,-0.005648
297.150,-0.005651
297.200,-0.005653
297.250,-0.005656
297.300,-0.005659
297.350,-0.005661
297.400,-0.005664
297.450,-0.005667
297.500,-0.005669
297.550,-0.005672
297.600,-0.005675
297.650,-0.005677
297.700,-0.005680
297.750,-0.005682
297.800,-0.005685
297.850,-0.005688
297.900,-0.005690
297.950,-0.005693
298.000,-0.005696
298.050,-0.005698
298.100,-0.005701
298.150,-0.005703
298.200,-0.005706
298.250,-0.005709
298.300,-0.005711
298.350,-0.005714
298.400,-0.005716
298.450,-0.005719
298.500,-0.005722
298.550,-0.005724
298.600,-0.005727
298.650,-0.005729
298.700,-0.005732
298.750,-0.005735
298.800,-0.005737
298.850,-0.005740
298.900,-0.005743
298.950,-0.005745
299.000,-0.005748
299.050,-0.005750
299.100,-0.005753
299.150,-0.005756
299.200,-0.005758
299.250,-0.005761
299.300,-0.005763
299.350,-0.005766
299.400,-0.005769
299.450,-0.005771
299.500,-0.005774
299.550,-0.005777
299.600,-0.005779
299.650,-0.005782
299.700,-0.005784
299.750,-0.005787
299.800,-0.005790
299.850,-0.005792
299.900,-0.005795
299.950,-0.005797
